EMG01_right_gast_med,EMG02_right_glut_max,EMG03_left_gast_med,EMG04_left_glut_max,EMG05_right_glut_med,EMG06_right_bic_fem,EMG07_right_rect_fem,EMG08_right_vast_lat,EMG09_right_vast_med,EMG10_right_tens_fasc_lat,EMG11_left_glut_med,EMG12_left_bic_fem,EMG13_left_rect_fem,EMG14_left_vast_lat,EMG15_left_vast_med,EMG16_left_tens_fasc_lat
0.19143406499467733,0.003468058143281773,0.04679224750312573,0.0010918811121010316,0.025455163683968347,0.0037713438599639377,0.02992471729054571,0.01163480369581434,0.005440903068370332,0.0630576077511704,-0.12831456691607906,-0.008415594900259888,0.07285668017677994,0.010241483075518762,0.02997962500190214,0.0737600719095362
0.19843808667883964,0.003998243039799215,0.04744077547997146,0.0011978423706281067,0.026669308975567053,0.0043922246385695906,0.030350146275814907,0.012548282825305446,0.00559927284460436,0.06767944150695347,-0.1194545524778144,-0.004876292713634428,0.07567463741152139,0.015345714952089796,0.03619688685471756,0.07689677232899415
0.20540345783716135,0.004541513880083257,0.04809948936426559,0.0013050047537000939,0.027900587180423132,0.005025974645417433,0.030791464262273176,0.013462456870923388,0.005759276021316869,0.07229597773187593,-0.110641340335854,-0.0013300025049060935,0.07846741358840127,0.02042562500143949,0.04234715242356283,0.08005756598342333
0.21232031736359677,0.005098078865234163,0.048768162730909094,0.001413297645643342,0.029147981169304286,0.0056725194823977615,0.031248769462331787,0.014376360452178442,0.00592079904735151,0.07690244740186725,-0.10188633349173146,0.002219654656294762,0.08122756517221434,0.025474287486306396,0.04842193404293844,0.08323783053968568
0.21917878246135403,0.005668151503403786,0.04944650988811469,0.0015226525241495337,0.030410517087705594,0.006331793785138372,0.03172215055000532,0.015289018880656613,0.006083737187246716,0.08149397822075846,-0.09320034699472032,0.005769167378319303,0.08394814926584143,0.030485059739140452,0.05441281172723221,0.08643319895300289
0.22596894677176776,0.006251944913996874,0.05013417413934131,0.0016330050887788993,0.0316872856855836,0.007003743968412117,0.03221168500536431,0.01619945906562362,0.006247993673205203,0.08606558157174744,-0.0845934391285205,0.009315172117868026,0.0866229350623361,0.03545172864666711,0.06031152774333152,0.08963968605113161
0.23268081063766904,0.0068496708062458864,0.05083071655878991,0.0017442970054975377,0.032977453538611375,0.007688330647524978,0.03271743151724969,0.017106721788479853,0.006413475076590884,0.09061217445907675,-0.07607475329010625,0.012854484253415017,0.0892465150734662,0.04036863269721343,0.06611011527982598,0.09285374954404774
0.23930416726267384,0.007461545416490998,0.05153560845390699,0.0018564769329261544,0.03428026407951637,0.00838553081867217,0.03323941828500212,0.018009872312832242,0.006580085211412309,0.09512862927341818,-0.06765238763879594,0.016384121725623556,0.09181431132533596,0.04523074112778207,0.07180102481193633,0.09607228418171432
0.24582851155856825,0.008087799488366881,0.05224823209240595,0.001969500843798744,0.035595028680884856,0.009095339751330974,0.03377762970781829,0.018908008645097254,0.006747721148933959,0.09960983482701798,-0.05933330600223774,0.019901321392313258,0.0943224899486528,0.05003369019925009,0.07737723658610059,0.09929255910472326
0.2522430550198385,0.008728688427996038,0.05296789041497859,0.0020833316922189357,0.0369211084883689,0.009817772435300636,0.03433199618515169,0.019800267018567175,0.006916273728776273,0.10405075990180432,-0.051123299405674526,0.023403548421250298,0.09676780127008387,0.054773778427766644,0.0828323541067335,0.10251211087390955
0.2585368624754075,0.00938450083818765,0.053693822237944173,0.0021979385122665,0.038257888147553536,0.010552864334504516,0.03490239167199192,0.020685824243681695,0.007085630942207229,0.10844651468216386,-0.04302700287821346,0.026888499119557634,0.09914736530719588,0.05944792433977467,0.08816067408410506,0.10572860625470758
0.2646990517707737,0.010055564691439523,0.05442521978296232,0.0023132950564075747,0.03960474382268827,0.011300671131508708,0.035488638066825874,0.02156389664057236,0.007255680848240233,0.11279240502696077,-0.03504796691658904,0.03035409750106609,0.10145844874894143,0.06405359148697433,0.09335722932611569,0.10893970338855796
0.2707189993075842,0.010742250562106556,0.05516124721728186,0.0024293781001498704,0.04096101410673181,0.012061267120185558,0.0360905106382999,0.02243373536341369,0.007426312302804774,0.11708397442055136,-0.02718877835947178,0.03379848576286352,0.10369833498677308,0.06858868659159616,0.09841780242199334,0.11214297013330131
0.2765865273312869,0.011444971504507542,0.05590105930152721,0.0025461655498288144,0.04232598962436252,0.01283474192398622,0.03670773980585949,0.023294618039807945,0.007597413256909934,0.12131702868825292,-0.019451221739796985,0.037220008726748015,0.10586436516866542,0.07305143768800954,0.10333890960376031,0.11533590145944203
0.2822920613816633,0.012164179363213947,0.05664381899011221,0.002663634488458424,0.0436989286560811,0.013621195281663464,0.037340007642836785,0.024145836775848792,0.007768867019142157,0.12548763923682257,-0.011836469367444633,0.04061719221482764,0.10795410299737775,0.07744025967706183,0.10811775569399353,0.11851600490029376
0.28782674765413274,0.012900357510988707,0.05738871265838807,0.0027817593399147604,0.04507908760096147,0.014420729751843409,0.03798694036418984,0.024986682720072307,0.007940548185072659,0.1295921216302809,-0.004345284672751732,0.043988715337609535,0.1099655168801295,0.08175362236324805,0.11275216239538009,0.12168089271421868
0.29318252144909657,0.013654010212686531,0.058134961570188354,0.0029005104891135286,0.046465751685362024,0.015233441336782217,0.038648102933694355,0.025816428895860607,0.008112321374014958,0.13362698766268608,0.0030217994978323517,0.04733337679449369,0.11189712125487912,0.08598995661638408,0.11724047320900263,0.1248283503156473
0.2983521196514774,0.014425649011506801,0.05888182825459714,0.0030198536969726388,0.047858259904874655,0.016059409684091138,0.039323003558031734,0.026634317405521992,0.008284044396962127,0.1375888706745942,0.0102643956835123,0.05065005547588439,0.11374806338641288,0.09014763532028917,0.12158143889176602,0.12795637629396084
0.303329032283688,0.015215778494869117,0.05962861663771371,0.003139750206706045,0.04925602236334103,0.0168986928036013,0.04001110930193465,0.02743955896198103,0.00845557395929042,0.1414744255658506,0.017382296604549336,0.05393766587215689,0.11551815307746903,0.0942250211845188,0.1257740875710241,0.13106319516878628
0.3081073905429661,0.01602488789111898,0.06037466507081257,0.0032601570271480616,0.05065852851628595,0.017751330124774947,0.04071186750768662,0.028231345865969912,0.008626771175771526,0.14528021855750203,0.024375568635187465,0.05719510963470823,0.11720783681005223,0.0982205352749912,0.12981758349795236,0.13414724572812464
0.31268179144692876,0.016853453922810478,0.061119331787185455,0.003381027008625619,0.05206534528601469,0.01861735153054318,0.04142472782255646,0.029008871806971856,0.008797505670907793,0.14900265417634598,0.031244631456889514,0.06042123178613195,0.118818121509684,0.10213271182784864,0.1337110845456316,0.13720714888893873
0.317047062275767,0.017701952412932088,0.061861972773752216,0.0035023086458968143,0.053476104581969226,0.019496787581119925,0.042149161910641636,0.029771352294551526,0.008967657872398586,0.15263799004404713,0.0379903006596806,0.0636148010547017,0.12035045621719656,0.10596023106811947,0.13745363310269992,0.14024165952910198
0.3211979836826013,0.018570872148025254,0.0626019125247725,0.003623945665572256,0.05489048040278153,0.02038967852292536,0.04288467870688974,0.030518043296652225,0.00913711928318208,0.15618243414467453,0.04461379443786618,0.06677452563514644,0.1218065822072171,0.10970193142006199,0.14104413178211853,0.1432496066780127
0.32512905358638144,0.019460727283697122,0.06333841135600739,0.0037458764706430653,0.05630815637631,0.021296081213514267,0.04363083333436169,0.031248257002964998,0.009305790701746813,0.15963227486833412,0.051116708354880476,0.0698990916761875,0.1231883634070622,0.1133568041493366,0.1444814156326604,0.14622982594272477
0.3288344347015175,0.02037206712546408,0.06407064163577608,0.003868033523133503,0.057728786527893976,0.0222160732501092,0.044387228278982734,0.03196137365983055,0.009473578529872495,0.16298400589691658,0.05750096444068895,0.07298720626863812,0.12449762758230735,0.11692397471417026,0.14776437568923279,0.14918108726118656
0.3323081433411862,0.02130548263630098,0.06479768832874869,0.00399034274719033,0.05915196003597976,0.02314975370794114,0.045153506061960696,0.03265684850488603,0.009640389447076715,0.1662344314629684,0.06376874248352149,0.07603763790154093,0.12573608346775997,0.12040267577906055,0.15089208821785027,0.15210202017125465
0.33554437588642483,0.022261609182377424,0.06551857515193464,0.004112723029445225,0.060577189288740875,0.02409724004728766,0.04592933340694736,0.033334212970733114,0.00980612404214892,0.16938074460452174,0.06992240217373596,0.07904925273719346,0.1269053532596984,0.12379221688650627,0.15386393403308626,0.1549910449245611
0.33853784588481295,0.023241125219236818,0.06623230265619598,0.004235085882107734,0.06200392959501699,0.025058660929824086,0.0467143776838178,0.03399306953167367,0.009970671203946128,0.17242057216122852,0.07596440468249756,0.08202104495724875,0.1280070746264075,0.1270919552038831,0.15667970395162312,0.15784633298145104
0.34128407914917686,0.02424474683495719,0.06693788596901638,0.004357335318012602,0.06343161627355229,0.026034144894824744,0.047508277525524716,0.03463307983700216,0.010133906288314698,0.1753519818420621,0.08189724131621166,0.08495215941194476,0.12904300201199428,0.13030127065534172,0.15933968617898406,0.1606658167706717
0.3437796486273942,0.025273218295006544,0.067634387625544,0.004479367966887226,0.06485970106783667,0.027023805105599954,0.04831061479828305,0.03525394610433216,0.010295694265838068,0.17817344868770246,0.08772337517139071,0.08784190489973909,0.1300150788875035,0.1334195472685173,0.16184473142316247,0.16344723849170265
0.34602233352685563,0.0263272989628429,0.06832094377004173,0.00460107343963712,0.06628768053455415,0.028027723400109027,0.04912090251811202,0.03585538612613816,0.010455895594652808,0.1808837805573296,0.09344519940801364,0.09068975664093593,0.13092547890139183,0.13644616091037828,0.16419629186405657,0.1661882129136953
0.3480111911349983,0.02740774718595123,0.0689967823497151,0.004722334923737303,0.06771511432832719,0.029045942643827944,0.04993859647997596,0.036437104387248356,0.010614372115753569,0.1834820047576799,0.09906501313521188,0.09349534689173741,0.13177661792786874,0.1393804719611457,0.16639643080355057,0.16888629067683716
0.349746534733717,0.02851530215820274,0.06966123234397231,0.004843029969226549,0.06914163194976711,0.030078473890012437,0.050763120472296516,0.03699876880108647,0.01077099199897161,0.18596722043945124,0.10458501329449091,0.09625844315552365,0.13257114078600024,0.14222182006771025,0.16844780085230274,0.17153901865594848
0.35122981661320757,0.029650667342279422,0.07031372354520993,0.0049630314028368885,0.07056692726713082,0.03112531360673138,0.05159389125507239,0.037540007355552886,0.010925633581158667,0.18833843851601284,0.11000729867488868,0.09897891404517647,0.13331188755773216,0.14496951708564715,0.17035358981700194,0.1741439951781663
0.3524634210354731,0.030814502585534316,0.07095377689683026,0.005082208289059945,0.0719907409076526,0.032186462447069755,0.05243033838703014,0.03806042856746617,0.011078187993532877,0.19059447249458641,0.11533388059295244,0.10165668347871912,0.13400184495914114,0.147622833782196,0.17211743495657297,0.17669891737698334
0.35345037763330295,0.03200742840122748,0.07158098586292796,0.0052004268430478635,0.0734128313852236,0.03326194159374114,0.05327191872138414,0.03855965427044784,0.011228560515831189,0.1927339485754441,0.12056669400543327,0.10429167449122598,0.1346440881904012,0.15018097591034482,0.17374330788332334,0.17920161764900247
0.3541940107136661,0.03323003688701586,0.07219498971778258,0.005317551192586628,0.07483293653441979,0.03435180523228753,0.054118125997257696,0.03903735234289904,0.011376670622168294,0.19475542801557064,0.1257076029485021,0.10688374446620323,0.13524171823770884,0.15264304590479885,0.17523537398934388,0.18165008610700964
0.3546975728248476,0.034482902036653156,0.07279543997570835,0.005433443885995166,0.07625072956799891,0.035456147869295546,0.05496849635800849,0.03949326441211499,0.011522450701309356,0.19665757071530215,0.13075839514237173,0.10943262245690531,0.13579779888181137,0.155007987769261,0.17659783176790367,0.18404247610920127
0.35496399312000504,0.03576658668532532,0.073381961416983,0.005547966050150124,0.07766578301103289,0.03657510549580996,0.055822610764546296,0.039927226831228235,0.011665843448128141,0.1984392842750855,0.1357207621976788,0.11193787690560345,0.13631529683517687,0.15727452717443993,0.17783475676602,0.18637709038221895
0.3549958809680527,0.037081645608319766,0.07395411068685712,0.005660977117688053,0.0790775597420185,0.03770884998536472,0.05668009512947496,0.0403391836427364,0.011806797939914578,0.20009983889634372,0.14059626388214377,0.1143989341378169,0.136797027605103,0.15944114697114806,0.17895001508396619,0.1886523459253157
0.35479576845095834,0.038428624549991734,0.0745113424046743,0.00577233406388978,0.08048543580731418,0.03885757658070589,0.057540618619357047,0.04072919075818898,0.011945264437203583,0.20163894109284522,0.14538627997289005,0.11681513197968002,0.13724560893893223,0.1615061301806101,0.17994729753230493,0.19086671675883635
0.3543664384555014,0.039808055233738864,0.07505299930335355,0.005881890120344438,0.08188873837870089,0.040021484821084474,0.05840389004717661,0.04109741114753558,0.012081187988392287,0.20305676179089463,0.15009196667129654,0.11918578039958308,0.13766342419242722,0.16346765307152183,0.18083024235592865,0.19301865463000398
0.35371121881790724,0.04122044667370346,0.0755783321399166,0.005989492962430733,0.08328678132842647,0.041200753743676245,0.0592696517248527,0.04144410139014968,0.012214501606984113,0.2043539172814596,0.15471424417769206,0.12151021670648125,0.13805259953978474,0.16532389222278396,0.18160257571892313,0.19510648896788252
0.3528342053841112,0.04266627335604505,0.076086535897432,0.006094982558353435,0.08467889183936204,0.04239551635575274,0.0601376696937273,0.041769590443950934,0.012345121628912445,0.2055314044169152,0.1592538239548605,0.12378785254022869,0.13841499601008322,0.16707312793879756,0.18226823152379173,0.19712832302196975
0.3517404062127392,0.044145961065919656,0.07657678707827799,0.006198189456986305,0.08606442635241256,0.043605846326355766,0.06100771901001492,0.04207425190166257,0.01247294828190216,0.20659049419878756,0.16371125549435034,0.12601821074717667,0.1387522093955866,0.16871383688542796,0.18283144044579555,0.19908197691106294
0.3504358040596258,0.04565987181701309,0.07704827690439421,0.006298934655308443,0.08744277482351,0.044831766267806654,0.061879562805366085,0.04235847130072707,0.012597871420800056,0.20753259029011814,0.16808696916172872,0.12820095053666342,0.13906556906162304,0.1702447671959639,0.1832967841052295,0.20096502225446197
0.34892733898501077,0.04720829133058736,0.07750023966657521,0.006397031357697955,0.08881335296493195,0.046073270763654174,0.06275292419251136,0.04262261186616332,0.01271977853843027,0.20835906086314623,0.17238130470325466,0.13033587966371957,0.1393561345257502,0.1716649901868463,0.18366921234924807,0.20277489079788963
0.3472228171329796,0.0487914233642165,0.07793197560818482,0.00649228779165608,0.09017558282025422,0.04733035150789673,0.06362745517970304,0.04286698816724108,0.012838562658736827,0.20907107658480317,0.17659452142066964,0.1324229527822746,0.13962469571893285,0.1729739241075598,0.1839540239023689,0.2045090064555983
0.3453307552317779,0.050409391076897556,0.0783428678447965,0.006584510190629482,0.09152886262280775,0.048603018695234285,0.0645027184243136,0.043091860591884246,0.012954129202298006,0.20966953352215573,0.18072678746829737,0.1344622555578096,0.13987178008078915,0.17417132690185094,0.1841568130281873,0.206164910877283
0.34326017301123674,0.05206224055514925,0.07873239291177257,0.006673505577170933,0.09287252738846391,0.04989131713530651,0.06537819796610114,0.043297452662006415,0.013066401407941885,0.21015511202249723,0.18477814730516706,0.13645397460684794,0.14009766221386752,0.1752572566619387,0.18428338714401468,0.20774037217989785
0.3410203474597345,0.05374994192710093,0.07910012460254985,0.006759084188107328,0.09420580541010783,0.051195336113399374,0.06625333588195637,0.04348397891193518,0.013175323953564314,0.21052842101741026,0.18874846795145295,0.13839835382296425,0.140302369602526,0.17623200021652,0.18433966234013982,0.2092334700297523
0.3386205436443049,0.055472386501092756,0.07944573082127614,0.006841061391440076,0.09552778619877751,0.052515212366139326,0.06712757869800665,0.04365167149699557,0.013280864506036437,0.2107901473852837,0.19263737187274796,0.1402956381303541,0.14048568016100363,0.1770959720283993,0.18433154527185147,0.210642650976716
0.33606975594173694,0.05722937972991683,0.07976896323783272,0.00691925896083642,0.09683741892009692,0.05385112590327132,0.06800042201227448,0.0438008017223098,0.013383013036579223,0.21094117691557762,0.1964441836259893,0.14214600615236575,0.14064711357477114,0.17784958722187277,0.184264810744294,0.21196674908845567
0.3333765415504511,0.05902063124397782,0.08006963961664088,0.006993505597225852,0.09813354267598678,0.05520328877295605,0.06887144831436291,0.04393169601002162,0.013481778855147656,0.2109826804195892,0.2001679260932044,0.1439494964953779,0.14078593029784778,0.1784931286038434,0.18414499397905526,0.21320496849795714
0.3305490238288054,0.060845746693636606,0.08034761880842048,0.007063636617217378,0.09941493116425885,0.056571927225083266,0.06974035470171952,0.04404474612052385,0.013577185436372596,0.21091616131394422,0.20380737226364723,0.14570594646105614,0.1409011537410992,0.17902666452620328,0.18397733269117023,0.21435682641580275
0.3275950392832098,0.06270422726098288,0.08060276855953126,0.0071294927634380605,0.10068033609292941,0.05795725805971093,0.07060696779272589,0.04414041371008355,0.013669263222990783,0.2107434630504098,0.20736112265837559,0.14741497561061803,0.14099161590485038,0.17945007280459147,0.1837667746632722,0.21542205737884812
0.32452232693977057,0.06459547764094449,0.0808349265155716,0.007190918130789427,0.10192852351196903,0.059359460239851794,0.07147124402965653,0.04421922952853874,0.013758040695021963,0.21046673682120912,0.2108276784758608,0.1490760266393489,0.14105601669856777,0.17976315683645158,0.1835180171506258,0.2164004818716804
0.3213386908260207,0.06651881817775725,0.08104385692375492,0.007247757243164612,0.10315830078182552,0.060778644994961106,0.07233325466071946,0.04428178772619275,0.013843534973883171,0.21008837194229987,0.21420549706132735,0.15068843898358475,0.14109298970683898,0.17996579261527001,0.18323553454858754,0.21729184684995387
0.3180521183218405,0.0684734971193813,0.08122921482610602,0.007299851355448872,0.10436853218675211,0.06221483355938028,0.07319315587842608,0.04432873584451285,0.013925745644285016,0.20961089312468947,0.21749302308784238,0.15225152606094175,0.14110116952586738,0.18005806434942556,0.1829235788635152,0.21809567539579988
0.3146708535595164,0.07045870108186604,0.08139053860342264,0.007347034443226159,0.1055581416127627,0.06366795336451239,0.07405114575179104,0.044360761113608954,0.014004655665167348,0.20903683041214874,0.22068869012196454,0.15376464496118805,0.1410792553845261,0.18004037448033525,0.1825861547287069,0.21881120833589432
0.3112034272103536,0.07247356259333225,0.08152727923638056,0.007389130398265726,0.10672610124803576,0.06513785267200087,0.0749074106087325,0.04437857368036819,0.014080238824959214,0.20836857577671447,0.22379088907033912,0.15522725532287307,0.1410260655094726,0.17991352202038877,0.18222698018349337,0.21943748574829788
0.3076586458611472,0.0745171637612058,0.08163885094488715,0.007425953264834713,0.10787140591445815,0.0666243225159161,0.07576207040990646,0.044382887359453886,0.014152469652478926,0.20760826916068015,0.22679790227154414,0.15663896435016772,0.14094057692044099,0.17967874489627683,0.18184946039700922,0.21997351348357522
0.3040455457026988,0.07658853534543185,0.08172468464419896,0.007457310603778518,0.10899303337285368,0.06812711635149508,0.07661514653493112,0.04437439845278619,0.014221332696604774,0.20675777664903858,0.2297078063802624,0.15799955540060778,0.14082194606371765,0.17933772404516196,0.18145669933896122,0.2204184347256439
0.3003733163931212,0.07868665080198259,0.0817842767902705,0.007483008320667986,0.11008989172012051,0.06964596407436006,0.0774665707847868,0.044353763139196825,0.014286830106812694,0.20581877582033842,0.23251837217354737,0.15930899832604747,0.1406695068770274,0.17889254920834383,0.18105154318554903,0.22077167406761086
0.29665120171156506,0.08081041515935984,0.08181723114336502,0.007502855527464577,0.11116076290499183,0.0711805794592795,0.0783162251310519,0.04432157671714538,0.01434898708437167,0.2047928929884241,0.2352270280458287,0.16056744073362408,0.14048274444231287,0.17834564854106028,0.18063662807651015,0.2210330463014677
0.29288838399289957,0.08295864888048293,0.08182329111948913,0.007516668920283201,0.11220426907392601,0.07273066043855086,0.07916398706584483,0.04427836376996322,0.014407854868945838,0.2036818343874762,0.23783093043805906,0.16177518044181965,0.14026124418579067,0.17769968616962709,0.18021441260971102,0.2212028242832535
0.2890938593561588,0.08513006712117001,0.08180236070327873,0.007524276470413563,0.11321888702386741,0.07429588208048536,0.08000976639286095,0.04422458574125889,0.014463511045974044,0.20248748999314725,0.24032710500137325,0.1629326204813051,0.1400046184481352,0.17695743356477567,0.1797871879478298,0.22128176272613123
0.28527631044692725,0.08732325638778381,0.08175451235653917,0.00752552024594039,0.11420300385531257,0.07587588261702355,0.08085353003581919,0.044160660535522096,0.014516057102373357,0.20121200464968617,0.24271259874579357,0.16404020886565412,0.13971241445087995,0.17612162277993992,0.17935706341743793,0.22127107740488172
0.28144399441841406,0.08953665558900906,0.08167998095216374,0.007520258209276539,0.11515498665189317,0.07747024337375477,0.08169531415134347,0.04408698468327744,0.014565613314663543,0.19985781287388005,0.24498461613161565,0.16509836591023486,0.1393840246373434,0.17519481135856596,0.17892592809337662,0.22117238183627136
0.27760468629463436,0.09176855140519007,0.08157914345912848,0.007508364870935964,0.11607324829169448,0.07907846393532879,0.0825352236457376,0.044003953851728436,0.014612311213846539,0.1984276356435384,0.24714062988311006,0.16610740206977156,0.1390186494458028,0.17417932493432872,0.17849540112034518,0.2209875858497869
0.2737657030145303,0.09401709040366218,0.08145248485632199,0.007489730721009744,0.11695630309706757,0.08069993487594523,0.08337341985833127,0.0439119807201212,0.014656284021881755,0.19692443955793054,0.24917845894375995,0.1670674352303867,0.13861534401862827,0.17307731468491708,0.17806680682879475,0.22071876242406638
0.2699339785250636,0.09628030031978771,0.08130055151065822,0.007464260405988333,0.11780280893434225,0.08233391400633995,0.08421009766069254,0.043811509478284584,0.014697656089251665,0.19535136087173133,0.25109630808746825,0.16797833386025127,0.13817311740665264,0.1718908816221227,0.1776412050836657,0.22036799061519893
0.2661161419670945,0.09855611284719362,0.08112389396562351,0.007431869668525703,0.11861159301501041,0.08397951525197932,0.08504545353988041,0.04370302626368398,0.014736534463264199,0.1937115989346161,0.25289276605564753,0.16883971696146807,0.13769103598479845,0.17062220043356613,0.1772194644100355,0.21993719349221658
0.26231857767125316,0.10084238525614539,0.08092300677269851,0.007392481119955627,0.11938165946914571,0.08563571243211646,0.08587964642145032,0.043587064968816064,0.014773007107637974,0.19200828539165582,0.2545667615117066,0.16965101054773887,0.13716831180456873,0.16927361760804965,0.17680234440971201,0.2194280217566232
0.2585474645453833,0.10313692014635252,0.08069828758135916,0.0073460189680547095,0.12011217770864102,0.08730134861627434,0.08671275368650716,0.04346420802399921,0.014807148795198422,0.19024435495172182,0.256117478414411,0.1704115301857521,0.13660437207326712,0.16784772030548753,0.176390568429666,0.21884184309421245
0.2548087956578562,0.10543748271753364,0.0804500402066152,0.00729240334052415,0.12080245160936598,0.08897514086409689,0.08754473153649746,0.04333508198092648,0.014839030638859007,0.18842248125683578,0.2575442344626559,0.17112056460020914,0.13599890716593457,0.16634737425695775,0.1759848802592633,0.21817983725470277
0.25110837968538774,0.1077418150011603,0.08017851988785177,0.007231546303856822,0.12145187054930173,0.09065567662510123,0.08837539887770397,0.043200347974865466,0.014868729097634308,0.1865451229208185,0.25884632795265095,0.17177745229925906,0.13535189580279602,0.16477573077852983,0.17558608185563188,0.21744313427922238
0.24745182661895343,0.11004764652979773,0.0798839950886271,0.007163352182703027,0.12205984427800877,0.09234140155028457,0.08920445485296782,0.04306068740988038,0.014896332978317934,0.18461464359691485,0.26002286867978897,0.17238164871029418,0.13466360718417322,0.1631362046341084,0.17519505103480557,0.2166329425618812
0.24384452068737644,0.1123527009217725,0.0795668052955107,0.007087722355201452,0.12262572440449188,0.09403060339294138,0.09003151606184617,0.042916783472165716,0.014921948128805243,0.18263343968686396,0.26107264445855877,0.1729327813461365,0.13393458091430854,0.16143242589335038,0.17481273990477186,0.21575065027017626
0.24029158385169033,0.11465469783154912,0.07922740788895336,0.007004562127700706,0.12314872717158563,0.09572140516605963,0.09085615434128755,0.04276929931182666,0.014945699654539773,0.18060404387533585,0.2619940995847211,0.1734306906882559,0.13316558643731488,0.15966817003972347,0.17444015635718849,0.21479789756781248
0.23679783343713723,0.11695134967081951,0.07886641187009018,0.006913787565884335,0.1236278957915178,0.09741177772527247,0.09167792747144424,0.04261885506402874,0.014967731625849731,0.17852919708889375,0.26278544521132835,0.1738754547445356,0.13235756444176552,0.1578472713639351,0.17407833203589337,0.2137766185512476
0.23336773750248008,0.11924035245859323,0.07848459687271035,0.006815331508837664,0.1240621301996128,0.0990995665962365,0.09249640086630696,0.04246601024425686,0.014988204373688105,0.17641188588062393,0.26344483886914305,0.1742673955737374,0.13151155326330372,0.15597352513004475,0.17372828079434818,0.21268905315973402
0.23000537187295378,0.12151937013131099,0.07808291663994416,0.006709148480850804,0.12445026366045428,0.10078252170035788,0.09331115863488568,0.04231126056785242,0.015007289587949914,0.17425534464485634,0.26397056718633294,0.17460706644987994,0.13062860372766183,0.15405058891025988,0.17339095175122762,0.21153773049622712
0.22671438671203423,0.12378601165875076,0.07766248697351368,0.006595218257123811,0.1247911481529186,0.10245832361945076,0.09412180287610333,0.042155050652000266,0.015025163530754825,0.17206302446205843,0.2643612078915359,0.17489521878550923,0.12970968795303206,0.1520819099786112,0.17306718073169775,0.21032542597312215
0.22349799482881735,0.12603780038980864,0.07722455902387353,0.006473547895983817,0.1250837310000502,0.10412460303561424,0.09492794068462634,0.04199779391163246,0.01504199875353222,0.1698385325659345,0.2646157647891256,0.17513274848630977,0.12875562176677563,0.1500707130093308,0.17275764326173626,0.20905509546361842
0.220358983891672,0.12827213521184103,0.07677047961813536,0.006344172119359428,0.1253271185682372,0.10577895024787595,0.09572915905979677,0.04183989114075329,0.015057955102802334,0.16758554823062788,0.26473377035447304,0.17532062211266958,0.12776703846934903,0.1480200501317654,0.17246281149272918,0.20772979020633042
0.21729973728089233,0.13048624622321686,0.07630164104556515,0.006207152001465627,0.12552062440334885,0.10741891221972868,0.09652498867128124,0.04168174486721273,0.01507317240087478,0.1653077221462784,0.26471535174051397,0.17545978409206375,0.1267444309316844,0.14593287679092604,0.17218291658091064,0.2063525565991962
0.2143222479503275,0.13267715904724758,0.0758194232675558,0.0060625720082679736,0.125663799850079,0.10904197542007127,0.09731486000308705,0.041523768934306815,0.015087768518106757,0.16300857073888028,0.26456125728831836,0.17555105092968967,0.1256882322120274,0.1438121203156907,0.17191791720138863,0.20492632525345084
0.21142812091763016,0.1348416908305909,0.07532513791369767,0.005910535512003261,0.12575644593672564,0.11064553372279456,0.09809806515435074,0.04136639303131733,0.015101843913106658,0.1606913930897188,0.2642728420534398,0.17559502044689132,0.12459889745237829,0.14166073116524808,0.17166747407358007,0.20345380137502087
0.20861856684723343,0.13697648629491876,0.07481999680896781,0.005751158980414373,0.12579860606690496,0.11222684658738818,0.0988737478770204,0.041210062171263745,0.015115489387459172,0.15835924904493906,0.26385201234737166,0.17559204839825437,0.12347697360648147,0.13948171613477034,0.1714309300506085,0.20193739047651416
0.20589439566659815,0.13907807856474916,0.07430512290690264,0.005584565104489604,0.1257905398118044,0.1137830082441506,0.09964093074565196,0.04105523137954142,0.015128793495254093,0.15601500554246026,0.263301130800669,0.17554231574947593,0.12232315479704846,0.13727815369850713,0.17120729699870987,0.20037919791349446
0.20325602366497117,0.1411429571373265,0.07378159260250829,0.0054108760172314465,0.1257326788171386,0.11531095457811938,0.10039856267071232,0.040902356095055464,0.015141848307806603,0.15366141269489766,0.26262288494211933,0.1754459486513264,0.12113832158818899,0.13505319242789526,0.17099525318911152,0.19878109899823987
0.20070349885864328,0.14316763573054983,0.07325048448613537,0.005230209664653881,0.1256255665087487,0.11680751183147552,0.10114556635264792,0.04075187898292259,0.015154753248087747,0.151301171598564,0.2618201237287275,0.17530314296475932,0.11992356300891852,0.13281003402815234,0.17079315312531568,0.19714483720099846
0.1982365357475789,0.1451487167926547,0.07271292101479876,0.005042681878788061,0.12546978388262334,0.11826946673915677,0.10188087738631854,0.04060421400710119,0.015167616808509607,0.14893698266284425,0.26089566782762724,0.17511427397600263,0.11868018078291337,0.13055190300409172,0.1705990474409562,0.1954721163534686
0.19585454847524117,0.14708294910646863,0.0721701001990955,0.0048484128621110074,0.1252658641818496,0.11969363871869913,0.10260347239383158,0.040459728970622576,0.01518055608302967,0.14657157505257995,0.25985212042916683,0.1748799855779204,0.11740967590976902,0.12828200532751244,0.17041071078570877,0.19376467637702813
0.19355667668287435,0.14896727471954133,0.07162331677330894,0.004647534834054582,0.12501421039780666,0.12107694550640065,0.10331238404405628,0.0403187302754544,0.01519369417553437,0.14420771904749147,0.25869175392450205,0.17460125415929847,0.11611371849129495,0.12600347876670093,0.17022567855033457,0.192024350245396
0.1913418009277275,0.15079886141421345,0.07107397278203134,0.004440198999335868,0.12471505276150906,0.12241645746302017,0.10400670140356977,0.04018145707825186,0.01520715568284256,0.14184822396445151,0.2574165428485373,0.1742794237531789,0.11479410246853498,0.1237193377678852,0.17004129381047356,0.1902531005740255
0.18920854513306032,0.15257511712964317,0.07052357789577611,0.004226581345106507,0.12436847498215543,0.12370943614189885,0.10468555474765587,0.04004808806510854,0.01522106058017418,0.1394959247382261,0.25602831965574185,0.17391621053247208,0.11345268767325033,0.12143242202126729,0.16985476467237423,0.1884530350006591
0.18715526439657088,0.15429368318658748,0.06997374006892905,0.004006887061139999,0.1239744906966454,0.12495335337106944,0.10534808473183072,0.039918754920444895,0.015235516944728989,0.1371536603344837,0.2545289695152075,0.1735136763790114,0.11209133222874097,0.11914537053647083,0.1696632307688171,0.18662640036111333
0.18518001928204725,0.15595240386241446,0.06942614739259939,0.003781353434588807,0.12353313142145582,0.12614588802636775,0.10599339667073669,0.03979355502344959,0.015250613669984803,0.13482424692965547,0.2529206093128111,0.17307417287748983,0.11071181945647396,0.1168606366813466,0.16946383613615673,0.18477555653122357
0.18328054942025082,0.15754927082177456,0.06888254218986858,0.003550251132003804,0.12304452629685333,0.12728489882336239,0.10662050454140007,0.03967256058463682,0.015266415866492985,0.1325104483144288,0.2512057343495427,0.17260025860997663,0.10931579366712281,0.1145805309393789,0.16925380429297443,0.1829029316475669
0.1814542735420604,0.15908234211158226,0.06834468856498109,0.003313883844821378,0.12250896859125705,0.12836837277314195,0.10722828336062194,0.039555823731467224,0.015282965277207237,0.130214945356059,0.2493873267165834,0.17209459398319427,0.10790473485392504,0.11230726667366663,0.1690305102318674,0.18101096118198673
0.17969833168192653,0.16054963683759862,0.06781433475890716,0.003072586339043746,0.12192696626079828,0.129394350357338,0.10781546065425479,0.039443377251699746,0.015300284673440568,0.12794030569103174,0.24746892131030626,0.1715598189510673,0.10647998743521514,0.1100429967042806,0.1687915433962919,0.17910201398141568
0.17800965501021324,0.1619490252564095,0.06729317295465795,0.0028267210138881106,0.12129927445337134,0.1303608314982426,0.10838065822890147,0.0393352309258612,0.015318383148389823,0.12568895421178108,0.24545462768276086,0.1709984304509172,0.10504281930879202,0.10778983839213983,0.16853475565657167,0.1771783088607656
0.17638504026105797,0.1632781729186704,0.06678280603598076,0.002576673135933306,0.12062690856229422,0.13126568586835016,0.10892246138789555,0.03923136361744327,0.01533726040245828,0.12346314444080712,0.24334910824214728,0.17041270370960135,0.10359448014051456,0.10554988697011697,0.1682582888612418,0.17524183396884813
0.17482121687111432,0.16453458789549466,0.06628473818416764,0.0023228449724790297,0.11991113724795958,0.13210662048813035,0.1094394883568597,0.03913171153131662,0.015356909624214604,0.12126493173624489,0.2411575155608692,0.16980470038480866,0.10213624781568285,0.10332521756473637,0.16796057768049932,0.17329430056376632
0.17331490069953248,0.1657157476753246,0.06580039584474176,0.0020656491224369604,0.11915345571873068,0.13288123622216708,0.1099304483030846,0.03903615508799904,0.01537731903272921,0.11909615425355935,0.23888539357182842,0.1691763517821087,0.10066946189088824,0.1011178769598569,0.1676403250656009,0.17133715849896453
0.17186282870769184,0.16681924826923653,0.06533116521686384,0.0018055023957169476,0.11835554044754303,0.1335871405781595,0.11039418357592613,0.03894451130902757,0.015398472245794359,0.11695843206907447,0.23653854912006667,0.1685295655326239,0.09919554350120338,0.09892986663133616,0.1672964495568803,0.1693716605572444
0.17046177006282243,0.16784294369821903,0.0648784298758343,0.001542823455182466,0.11751918734899948,0.13422206768534978,0.11082969265769094,0.03885653809768033,0.0154203477022308,0.11485318745301241,0.2341229016006445,0.16786631976265887,0.09771600176107739,0.09676311891210682,0.16692800568928673,0.16739893976747028
0.16910851073212374,0.16878506457638745,0.06444360254396028,0.0012780361450580792,0.11664623620887173,0.13478398469605007,0.111236131490085,0.03877194849046665,0.015442917390614527,0.11278167672418113,0.23164431919961784,0.16718873463003675,0.09623242724385929,0.09461946832719717,0.16653408066845524,0.16542007800889377
0.167799810623323,0.1696443076209697,0.06402814982726374,0.0010115762538765363,0.11573848480718457,0.13527117846134293,0.11161279223994423,0.03869042777057745,0.015466145121709936,0.11074502338792672,0.22910846091898354,0.16649911932604766,0.0947464736313822,0.09250062104778692,0.16611367596738386,0.163436160247624
0.1665323345196986,0.17041988915055928,0.06363360903387077,0.0007438984368630533,0.11479760817642054,0.13568231718563772,0.11195906007672109,0.03861164868160424,0.015489984532854233,0.10874424888150534,0.22652067145193167,0.16579999408865434,0.09325982908307807,0.09040813037687907,0.16566560562286092,0.16144831279451594
0.16530257030167203,0.17111155747096812,0.06326159653808756,0.000475482038663834,0.11382512143965522,0.13601648293786806,0.11227435002946126,0.03853528292088992,0.015514376939193128,0.10678030000303583,0.2238859764900554,0.16509408813898166,0.0917741792695995,0.08834339122905277,0.16518846740881513,0.15945772464057476
0.16410677608040705,0.1717195613985722,0.06291380753012579,0.00020683560183692198,0.11282241130452315,0.13627317233845204,0.11255802880893241,0.03846100787801411,0.01553924906232047,0.104854072146001,0.2212091663205467,0.16438431566342407,0.09029116433270236,0.08630765788503152,0.1646807099882103,0.15746565160388765
0.16294100070931147,0.1722445748819771,0.06259200737033481,-6.150008292127559e-05,0.1117908110127187,0.1364522643867642,0.11280934174522592,0.03838850784695305,0.015564510586626204,0.1029664276114549,0.21849490656993176,0.1636737329597043,0.08881233330567762,0.0843020734675382,0.16414075317551802,0.15547340369403256
0.16180117356076087,0.17268758055432415,0.06229801512384861,-0.00032895045158914737,0.11073167860725529,0.1365539561673075,0.11302738616083216,0.03831746928083904,0.015590051431773212,0.10111820849152445,0.21574783127700126,0.16296548060474841,0.08733910644850205,0.08232769820256726,0.16356710928305496,0.1534823167505119
0.16068322002862848,0.17304971785063727,0.06203368016482922,-0.0005949071545495435,0.1096464616708183,0.13657866898447232,0.11321115327282631,0.038247570053121835,0.015615738596913975,0.0993102438726041,0.21297260675103974,0.16226271495931988,0.08587276349729578,0.08038553214886887,0.1629584864150475,0.15149371002278053
0.1595831689152439,0.17333211304629587,0.06180085299251717,-0.0008587294695959494,0.1085367452339386,0.13652692922335807,0.11335961040474701,0.038178463108259605,0.01564141296021366,0.09754335136139637,0.2101739662857537,0.16156853349036027,0.08441446412268577,0.0784765319941254,0.1623138702430743,0.14950883190681055
0.15849723885953745,0.17353574498558433,0.06160135158515544,-0.0011197469850877065,0.1074042809746658,0.13639923802822712,0.1134717841781791,0.038109757874514004,0.01566688770637012,0.09581833316735765,0.2073567175581983,0.16088589827645824,0.08296528425762073,0.07660162175141522,0.16163258216665555,0.14752879650822606
0.1574218980104709,0.17366142206593907,0.061436927506010555,-0.0013772633425854477,0.10625099686826817,0.13619597283242998,0.11354682887262087,0.0380410093310123,0.015691950067279217,0.09413596716669773,0.20452572608827133,0.1602175642336545,0.08152624949722184,0.07476169740174547,0.16091431308842397,0.14555452108488454
0.15635389281199372,0.17370988561188838,0.061309243524043606,-0.0016305607875664976,0.1050789875479205,0.13591737728996264,0.11358407621923161,0.037971724168617466,0.01571636602709905,0.09249699351989432,0.2016858793705744,0.15956602707880294,0.08009835897977363,0.0729576257230837,0.16015913322333364,0.14358669095577573
0.15529024362302826,0.17368197174500735,0.06121987527194601,-0.0018789052524883032,0.10389048672902654,0.13556364675176144,0.11358306405162091,0.03790138168135801,0.01573988641944456,0.09090209751754029,0.1988420371362983,0.15893350928412162,0.07868259895187167,0.07119023772612773,0.15936747935381226,0.14162577513192004
0.15422820682114813,0.17357876304248435,0.061170335127301814,-0.002121551201824211,0.1026878240535751,0.1351350563369019,0.11354354250569977,0.03782945936826651,0.015762253406728786,0.0893518893937771,0.19599897360156085,0.15832198297192662,0.07727994583087613,0.06946031727988758,0.1585401217046747,0.13967208261264277
0.15316520492613228,0.1734017052100184,0.06116210450531944,-0.0023577443530617627,0.10147336955723932,0.13463208140181263,0.11346545775281013,0.03775545643141215,0.01578320689518871,0.08784688187994912,0.1931613174884047,0.15773320657279297,0.07589135920093726,0.06776858565059105,0.15767811313506058,0.1377258301441547
0.15209872804781174,0.17315268327001568,0.06119666409406019,-0.0025867206866242464,0.10024946959401777,0.13405549263008198,0.11334891447845859,0.037678912635263316,0.015802490485249815,0.08638746627916583,0.1903334950890266,0.15716875566455618,0.07451776577602737,0.06611568279048817,0.1567827236418449,0.13578720368731828
0.15102621634609628,0.17283405459952084,0.06127551874920345,-0.002807702573996682,0.09901838202555854,0.13340642141113976,0.11319411940409367,0.03759942117740341,0.01581985652496964,0.08497389077412706,0.18751968075347852,0.15663004344903692,0.07316003589457792,0.06450214848124029,0.1558553632677713,0.13385640872226764
0.14994495918606066,0.17244863903682695,0.061400216060167725,-0.0030198942206792526,0.09778222975092522,0.13268639313435782,0.11300130903150468,0.03751663458658821,0.015835069839599612,0.08360625080218312,0.18472375802352153,0.15611833230345215,0.07181895531087006,0.06292841189368825,0.1548974964472544,0.13193370768280072
0.14885207226459063,0.17199966897235391,0.06157235778908824,-0.0032224777331766965,0.09654299443689433,0.13189732804688795,0.11277066722021632,0.03743026310638286,0.015847909753460728,0.08228449862168676,0.18194929333669616,0.15563473835183628,0.0704952005027697,0.061394797811535395,0.15391055065013215,0.13001944333266993
0.147744577094432,0.17149070464427996,0.06179360361451004,-0.0034146101119235904,0.0953025490473538,0.13104151124347524,0.11250225249908188,0.037340065507242906,0.01585817009727274,0.08100846630691498,0.1791995229108415,0.15518023130843359,0.06918933180277236,0.059901547199724924,0.15289582357009351,0.1281140474386078
0.14661953685698165,0.17092552162290528,0.06206566688823093,-0.003595421207883694,0.0940627038520797,0.13012153503911023,0.11219597336444295,0.03724583275916347,0.015865656996928008,0.07977789165100233,0.17647735220103453,0.154755631937514,0.06790181015570165,0.05844884251779184,0.15185440613564463,0.1262180346450869
0.1454741926840262,0.17030797860511906,0.06239030243714696,-0.0037640126365128023,0.09282524479276763,0.1291402183238247,0.11185162981444456,0.03714736545335014,0.015870184358901505,0.07859244221454577,0.1737853662850791,0.1543616093575904,0.06663302594670217,0.057036831211154354,0.15078715619077895,0.12433198199908838
0.14430607799457984,0.16964187539192235,0.06276928680511432,-0.003919457604202623,0.09159195823271297,0.1281005084561249,0.11146899284114442,0.037044447089923535,0.01587156709431534,0.07745173674950875,0.1711258487381757,0.15399868011214382,0.0653833257916621,0.055665645283250166,0.1496947387894415,0.12245649509719732
0.14311310434061053,0.1689308286508574,0.06320439171688709,-0.00406080157039908,0.09036464216804076,0.12700537179681437,0.11104788518358426,0.03693682067464319,0.015869612251832126,0.07635536370212,0.16850080602866763,0.1536672104637512,0.06415303198399003,0.054335416092778276,0.14857770494234349,0.12059216232266758
0.14189361374432596,0.1681782195324705,0.06369735193362039,-0.00418706364376954,0.08914510497155846,0.12585768761965216,0.11058824934167269,0.03682418186363197,0.015864109764482125,0.07530289650847735,0.16591199420174807,0.15336742278164575,0.0629424536649545,0.0530462836920141,0.14743657377765046,0.11873949909998856
0.14064639442090754,0.16738723844232864,0.06424983171350616,-0.0042972385929177,0.08793515357250689,0.1246601809676858,0.1100901998468169,0.036706194283351305,0.015854827732740533,0.07429390539686181,0.16336094459250416,0.15309940622679946,0.06175188937427663,0.05179840025501114,0.14627190585367544,0.11689888942136085
0.13937065896673834,0.16656098199777544,0.06486340165034907,-0.004390299340641187,0.08673657356841574,0.12341542723759459,0.10955405744069355,0.03658251704793063,0.015841516371218167,0.07332796541718349,0.16084898548994225,0.15286313123735065,0.060581621237109085,0.050591927433183005,0.14508436588231205,0.11507054646229868
0.13806598641077247,0.16570254544163024,0.06553953843718424,-0.004465199804903292,0.08555110406962967,0.12212591640437521,0.10898036357691457,0.03645283209542259,0.015823918673111316,0.07240466044498338,0.1583772570267364,0.1526584666220445,0.05943190160840408,0.04942702780779767,0.14387477323478115,0.11325451767241976
0.13673223180320282,0.1648150911362955,0.06627964572912563,-0.004520877948993057,0.08438041008114655,0.12079413405889268,0.10836987451544465,0.03631686659424047,0.015801782916416637,0.07152358296654744,0.15594671706850224,0.15248519741899205,0.058302933483058636,0.04830385096325033,0.142644138807453,0.11145073377487959
0.1353694090621964,0.16390189218108397,0.06708508198834007,-0.004556258594482058,0.08322605495715191,0.11942263080381729,0.10772353520068167,0.03617440936027034,0.015774874269920053,0.07068432954999909,0.15355813649973588,0.1523430411112456,0.05719484795461096,0.04722251505090646,0.14139368714393033,0.10965907600650984
0.13397755536704944,0.16296635158165443,0.0679571842990445,-0.0045702549052935295,0.08208947534515888,0.11801407301195,0.1070424340665388,0.036025320577459344,0.015742984548257635,0.06988649204458229,0.1512120830297726,0.15223165935661015,0.056107687493641034,0.046183086055448845,0.1401248631396572,0.10787944019417836
0.1325566061462989,0.1620119986070531,0.06889728445962952,-0.004561767769142905,0.08097196267502618,0.11657127452758664,0.10632774085394153,0.035869534482470225,0.015705939465910954,0.06912964471737167,0.14890889503459281,0.15215066214575923,0.055041406004628125,0.045185561471958985,0.13883932317658218,0.10611179029947558
0.13110634299051394,0.16104246495645447,0.06990671630407415,-0.00452968375013104,0.07987465673811901,0.11509720985300126,0.10558063041073339,0.03570705503466442,0.01566360284833511,0.06841332771549954,0.1466486569594051,0.1520996013180784,0.05399588672373122,0.04422986823834326,0.13753891111117642,0.10435619909014404
0.12962644866710293,0.16006144410172146,0.07098681380757502,-0.0044728728506463105,0.07879855180147843,0.11359501017211332,0.1048022033941202,0.03553794492803419,0.015615877416502196,0.06773702740961411,0.14443119951224867,0.15207795070290944,0.05297096755687526,0.04331587729279081,0.1362256201239351,0.10261287424991451
0.128116623627054,0.15907263766712335,0.07213890018823384,-0.004390186672593224,0.0777445081180185,0.1120679441976257,0.10399343431317108,0.03536230859890474,0.015562701962029189,0.06710015430691678,0.14225613731007122,0.15208507085553452,0.051966464306569086,0.042443426003340085,0.13490154198747967,0.10088216901547625
0.12657670104267052,0.15807969296094512,0.07336426886703545,-0.004280457070065897,0.07671326236921543,0.11051938627999347,0.10315517859615173,0.03518027013487739,0.015504044960794978,0.0665020211641157,0.14012293087420924,0.1521201575733631,0.05098218865940476,0.0416123393442019,0.1335688057873877,0.09916457727448987
0.12500673712654115,0.15708613580186007,0.07466415773132112,-0.004142495294089423,0.07570543598328765,0.10895277449530232,0.10228823342887083,0.034991947193697505,0.01543989491521812,0.06594182901865273,0.13803095370788054,0.1521821867145347,0.050017960505430996,0.04082244662986802,0.1322295085123236,0.09746071390733194
0.12340707399052309,0.15609530290849014,0.07603971861065749,-0.003975091607672577,0.07472154241035327,0.10737156155477558,0.10139341723586084,0.034797425437898405,0.015370247947527503,0.06541866949425362,0.13597955556890273,0.15226989332179047,0.04907361461384857,0.04007359323216553,0.13088564020918125,0.09577128194136254
0.12177837413927856,0.15511028474704797,0.0774919878387996,-0.0037770153314796774,0.07376199427573239,0.10577916137816991,0.1004716413275425,0.03459674505384728,0.015295094326073436,0.06493154235872864,0.13396811817483137,0.1523818138214114,0.04814900207776341,0.03936564697268608,0.12953901612582777,0.09409702874956125
0.12012162740528726,0.1541339003476089,0.0790218706693283,-0.0035470152685091786,0.07282711103577337,0.10417889407432873,0.09952396502526466,0.03438990831780432,0.015214408671562367,0.06447937946808649,0.13199609983520946,0.15251637293100206,0.0472439872257231,0.038698499134321024,0.12819124684430916,0.0924386940179398
0.11843813262102969,0.15316871325067075,0.0806301467112932,-0.0032838204513029215,0.07191712738325493,0.10257393693454593,0.09855163159164043,0.03417690248579913,0.015128149491984247,0.06406106853646865,0.13006306597101464,0.15267198004646482,0.04635844085870054,0.03807206026998013,0.12684376553334462,0.09079695264445609
0.11672945751450392,0.15221706811417657,0.08231748671596957,-0.0029861411577194494,0.07103220225052685,0.10096729913059335,0.09755608349122727,0.033957725762576496,0.015036268123644886,0.06367547495495934,0.1281687031224692,0.1528471181281438,0.04549223070754894,0.037486251205081283,0.12549789011573015,0.08917236338175692
0.11499738115940357,0.15128112334289703,0.08408446705790833,-0.0026526701506763384,0.07017242789041053,0.09936183191252518,0.09653895682696717,0.0337324098973008,0.014938721338946699,0.0633214613247279,0.1263128148446032,0.1530404184456106,0.044645209935851506,0.036940989831825165,0.12415488745849566,0.08756534755741972
0.11324382379266867,0.1503628719336857,0.08593157659265573,-0.0022820841121706584,0.06933783821738514,0.09776026206479842,0.09550205613203629,0.033501037713367474,0.014835482630878215,0.06299790432650126,0.12449529883811343,0.15325071531745052,0.04381720436854932,0.0364361744722683,0.12281602685141912,0.08597621153677566
0.11147076893861083,0.14946415097146232,0.08785921509315502,-0.0018730452602926597,0.06852841539090748,0.09616522747598472,0.09444731192610188,0.03326375478661123,0.014726550492992724,0.06270370845583677,0.12271610574833329,0.15347707638842137,0.04300799894733734,0.03597166573551665,0.12148262082223794,0.08440519457590007
0.10968018258339879,0.14858664091690968,0.0898676830688734,-0.0014242031573316687,0.06774409353385713,0.09457930488346915,0.09337672445754858,0.03302077477742173,0.014611953332842204,0.06243781604093864,0.1209751812486399,0.15371880583474845,0.042217323739587746,0.03554727261133189,0.12015605205159287,0.08285251677901334
0.10787393685651694,0.14773185644755377,0.09195716336790076,-0.0009341967346846264,0.0669847585105405,0.09300502838014674,0.09229229776123327,0.03277237824135783,0.014491750897850188,0.062199212868615225,0.11927239479411261,0.15397541992494673,0.04144484146916516,0.035162750781647656,0.11883778574363871,0.08131841821567855
0.10605375585258879,0.14690113111047173,0.09412769789842973,-0.0004016565734340718,0.06625024284556542,0.09144489891711,0.09119597189256659,0.0325189050716212,0.014366032328510893,0.06198692871888626,0.11760747171270262,0.1542465963314939,0.04069014223288534,0.03481781459435504,0.11752936743201094,0.07980318856372362
0.10422120483482179,0.14609559838018452,0.09637916989036337,0.00017479251414594555,0.0655403151474443,0.08990138549900513,0.09008957271132803,0.03226074104648542,0.01423491116459901,0.06180003218473264,0.11597996694610054,0.1545321002848208,0.039952749672550095,0.03451215531993634,0.11623240682788805,0.07830718716059525
0.10237772178853,0.14531617185768964,0.09871130374313024,0.0007965288522469314,0.06485466379800064,0.08837691916752681,0.08897480313651426,0.03199829924765709,0.014098517800756952,0.0616376193455518,0.11438930304288346,0.15483169196372337,0.03923213543406775,0.034245458353445155,0.11494854892186863,0.07683085378574292
0.10052466547935035,0.14456352727455823,0.10112368287151713,0.0014649321149747176,0.06419287863572605,0.08687388117885912,0.0878532768778226,0.03173199736583826,0.01395699001003398,0.061498796160118364,0.11283484625354043,0.15514502405111205,0.03852773593583118,0.03401741676817901,0.11367943411032659,0.07537471083362648
0.09866335826165515,0.1438380886721099,0.10361577495804093,0.002181383137130246,0.06355444262610994,0.0853945869849721,0.0867265690672465,0.03146223366815336,0.013810462225763763,0.061382654812035434,0.11131598228188308,0.1554715567929706,0.037838968696044056,0.033827740641453656,0.112426649605547,0.07393935775891715
0.09679511824400959,0.1431400206194278,0.10618695534816933,0.0029472649611152237,0.06293874405916292,0.0839412677172989,0.08559626102027065,0.03118936950761266,0.01365905542477206,0.06128824462838927,0.10983217600514052,0.1558105344485518,0.03716524763495445,0.033676161809370324,0.11119167482116733,0.07252545878762293
0.09492128167440936,0.14246922764436076,0.10883652453445153,0.003763964317922128,0.06234510519034837,0.08251605084472446,0.08446397245365311,0.0309137281206035,0.01350287174477939,0.06121454201685492,0.10838301162912703,0.15616103761532302,0.03650599695463696,0.03356243396407759,0.10997583108931568,0.07113372491263298
0.09304321674045082,0.14182536122811834,0.1115637174951747,0.004632873166287914,0.061772815823542944,0.0811209415453125,0.08333138100951318,0.030635610212504702,0.013341996653932308,0.06116043255303007,0.1069682110925878,0.15652207496648654,0.03586066318292687,0.033486328265680106,0.10878026003071173,0.06976489116392015
0.09116233014327689,0.14120783382447366,0.11436770297279024,0.0055553901597221395,0.06122116511525908,0.07975780650267289,0.08220022967388572,0.0303553165665047,0.013176506095969142,0.06112471781545274,0.10558763003668818,0.15689267346645033,0.03522872497622833,0.033447624880717425,0.10760594481212271,0.06841969009892732
0.08928006781824073,0.14061583848964537,0.11724757123966746,0.0065329218953625815,0.060689469028160005,0.07842836298701804,0.0810723232800361,0.03007316894063782,0.013006473975390547,0.061106143552286114,0.10424123219805574,0.1572719526134315,0.034609700303484266,0.033446101059316245,0.106453756286099,0.06709882242608395
0.08739791107167075,0.14004837193363887,0.12020230950350624,0.0075668837787594215,0.060177091590235245,0.07713417611659631,0.07994951573372365,0.029789526291797916,0.012831977734917567,0.061103435279401805,0.10292904455736,0.15765918027623674,0.03400315067525988,0.03348151650695511,0.10532449828807074,0.06580292566924419
0.08551736922148646,0.13950425820719117,0.12323076484060172,0.00865870032864005,0.059683458431482164,0.07587666303280692,0.07883368988339061,0.029504795645246648,0.012653101604065735,0.06111533209397591,0.10165109687449965,0.1580538086269229,0.03340868213278522,0.03355359710738259,0.104218942243093,0.06453254555479591
0.08363996960997133,0.13898216988371856,0.12633160249039277,0.009809804746814166,0.059208061483677944,0.07465709848848949,0.0777267320879807,0.029219437242983072,0.012469937466733971,0.06114061575603015,0.10040735310067467,0.15845548957562935,0.032825942769748234,0.03366202045649781,0.10313784949447341,0.06328812265046001
0.08176724563499335,0.1384806435232878,0.1295032836510364,0.011021637591162614,0.05875045420930919,0.07347661765722796,0.07663050352231073,0.028933963940682296,0.012282583434561055,0.061178133714757575,0.09919765523472356,0.15886406995183452,0.032254616628107205,0.0338064101394233,0.10208198042105383,0.062070003285869105
0.07990072324881235,0.13799808642996056,0.13274408314344935,0.012295644413812756,0.05831023724275979,0.07233621576496593,0.07554681012440098,0.028648935155276327,0.012091140342942754,0.06122681498362643,0.09802170973794866,0.15927956741769436,0.03169441389833468,0.03398634224479374,0.10105209012820203,0.06087846716592174
0.07804190621975395,0.13753277222313556,0.13605213807362967,0.01363327226106302,0.05788703485525899,0.07123674688043087,0.07447737285541525,0.028364945967158876,0.01189570650162796,0.061285678046952806,0.09687912377968681,0.1597021287224578,0.03114505747762458,0.03420135896862039,0.10004891124023363,0.05971375777820162
0.07619226035050683,0.13708282350264098,0.13942550518707622,0.015035964974621696,0.0574804631753623,0.07017892573261791,0.07342380137789782,0.02808261222890665,0.011696371209331423,0.061353830302723344,0.09576946357653356,0.1601319724020523,0.030606266105834133,0.0344509825664598,0.09907312504327502,0.058576108894931055
0.07435319679822319,0.13664618104797913,0.14286221451551917,0.01650515728297554,0.05709009422056902,0.06916333446550202,0.07238757819920662,0.027802552708933618,0.011493208707804093,0.06143045889818771,0.0946923055052028,0.16056931839767957,0.03007773561451525,0.03473472729029486,0.09812532287919239,0.05746576556761853
0.07252605464020785,0.13622056881552794,0.14636031424144444,0.01804226772454131,0.056715428939738625,0.06819043216416804,0.07137005935759487,0.027525369679140068,0.011286275970468508,0.0615148131761363,0.09364726965658529,0.16101430732629543,0.02955912437556352,0.03505210907729714,0.0972059655439656,0.05638299874877099
0.07071208286473796,0.13580348235844528,0.14991790262748705,0.019648690905673703,0.05635589677578239,0.06726056404232757,0.07037248818066526,0.027251632110003268,0.01107561611205615,0.06160617929818035,0.09263403439683729,0.1614669158882471,0.029050052257744985,0.03540265284462274,0.0963153608395319,0.0553281129268211
0.06891242276957223,0.13539222200909803,0.15353314349530547,0.02132579093774865,0.056010884308362825,0.06637396880254519,0.06939601252002367,0.026981869352484422,0.010861264954206008,0.0617038479277515,0.09165233202980055,0.1619268901954028,0.028550115583443513,0.035785897306940324,0.09545367648893713,0.054301446484788844
0.06712809519758185,0.1349839588705737,0.15720426268838278,0.02307489849736085,0.05567977736741778,0.06553078357601987,0.06844169952133289,0.026716578838396572,0.010643257360408267,0.06180707612943369,0.09070192712076786,0.16239373073626703,0.02805891033973175,0.03620139726994201,0.09462098090762895,0.05330336487090765
0.06535999998386738,0.1345758093200567,0.16092952413886993,0.024897311890859843,0.055362001597611156,0.06473104603671875,0.06751054691137467,0.02645624135630907,0.010421632005922736,0.0619150502547883,0.08978258028640382,0.16286673818023886,0.027576055338522105,0.03664872336482986,0.09381729089406432,0.052334247073997156
0.06360892963555885,0.1341649060243152,0.16470718548281227,0.026794300112405904,0.05505705581580468,0.0639746934861386,0.06660349116393291,0.02620133589004569,0.01019643431298341,0.0620268679586223,0.0888940011530062,0.16334509082257465,0.02710121209622008,0.037127459180101824,0.0930426137335027,0.05139446629620413
0.06187559042611902,0.13374846032323662,0.16853543452475986,0.02876710600229407,0.05476453634541595,0.06326155890455076,0.06572141294518301,0.025952351232713566,0.009967717397475944,0.06214155276072821,0.08803579967050157,0.16382792259134107,0.026634100408284397,0.037637195725904675,0.09229697998229887,0.05048436607716773
0.06016062365630584,0.1333238109395942,0.17241230913472017,0.030816948794896663,0.0544841510744577,0.0625913647195004,0.06486514024827891,0.025709794120708833,0.0097355409954777,0.06225809149300656,0.08720745662263028,0.16431439061440506,0.026174508832920485,0.0381775231448955,0.0915804653367097,0.049604235068380756
0.05846462462420778,0.13288845444026476,0.17633561595912567,0.03294502578237233,0.05421572262452916,0.06196371757804451,0.06403544961858193,0.025474193803258122,0.009499968459500517,0.062375476362569245,0.08640833103884245,0.1648037298558693,0.025722299599146434,0.038748019578177056,0.09089320059461226,0.04875428897986722
0.0567881588882757,0.1324400537019501,0.18030288803556802,0.0351525128416162,0.05395918067431028,0.06137810953952859,0.06323306585219235,0.02524610311971936,0.009261062028601877,0.06249274298285724,0.08563769683953071,0.16529529269704518,0.02527740779035268,0.039348237123909474,0.09023536935034876,0.047934669771995356
0.055131775484724845,0.13197642179459762,0.18431141030436435,0.037440563603591714,0.05371454409290008,0.06083392790845993,0.06245866052347533,0.025026096297806076,0.009018877169341417,0.06260900207223398,0.08489478620350113,0.16578857180124335,0.024839834996663795,0.03997768527500699,0.08960719368923593,0.047145461955407794
0.05349601686044931,0.13149548013457074,0.18835829173592436,0.03981030708431739,0.053481894057396014,0.06033047035834889,0.061712849662662536,0.024814763809750635,0.008773458433772453,0.06272346321980055,0.08417882591542013,0.166283205152592,0.024409637951838387,0.04063581559788149,0.08900890873928087,0.046386715068959083
0.05188142539823969,0.1309951913993203,0.19244054516727324,0.04226284364330075,0.05326133972663242,0.059866961246979544,0.06099619086226989,0.024612704727771054,0.008524839965059518,0.06283544941687141,0.08348906344246856,0.16677896277611615,0.02398691295165151,0.041322016367280584,0.08844072746693331,0.04565846284751487
0.05028854653517096,0.13047347111666946,0.1965551574215767,0.04479923918591576,0.053052978311315106,0.05944256744800837,0.06030918003998507,0.024420517101670997,0.008273051051664317,0.06294440144694465,0.08282478237585904,0.16727571530373647,0.02357177707451156,0.04203562239043651,0.08790279754845419,0.04496073593614796
0.048717928599788234,0.1299281020456845,0.20069914598286384,0.04742051757885815,0.05285685649074083,0.059056413082009145,0.05965224802375305,0.02423878693636133,0.00801812397184537,0.06304987169338344,0.08218530736325556,0.1677733852220321,0.023164347380487244,0.042775934846001486,0.08739515795531944,0.04429356754981008
0.04717011961170948,0.1293567055000398,0.20486960027062415,0.05012765130018882,0.05267295058718143,0.05870759253797396,0.059025757049952166,0.024068076372548257,0.007760101519889042,0.06315150742850374,0.08156999899866064,0.16827188229744208,0.02276472152564058,0.04354224327481525,0.08691771528715195,0.04365699192320496
0.045645661391820434,0.12875680186820113,0.20906370652605932,0.052921550395576084,0.052501178366648714,0.05839518119144371,0.05842999717754516,0.023908913002603113,0.007499043215950311,0.06324902415310749,0.08097823935321732,0.16877102529963248,0.022372967647248176,0.044333846305047345,0.08647025648707812,0.04305103584726742
0.04414508141696944,0.12812592693322852,0.21327875608505323,0.055803049858468054,0.052341433114166426,0.05811824325436534,0.05786518252265036,0.02376178479941698,0.00723502985165028,0.0633421700279024,0.08040940897099695,0.16927045727417708,0.02198912877030686,0.04515006989182971,0.08605248964746733,0.04247570402105915
0.04266888291622739,0.127461753295514,0.2175121372991784,0.05877289577557499,0.052193621726412606,0.057875836242505495,0.05733144711520982,0.02362714335686944,0.006968166123502028,0.06343068285144512,0.07986285627559876,0.16976957952224506,0.021613236605597767,0.045990281876547745,0.0856640920155544,0.04193096003846935
0.041217533744420796,0.12676219473314881,0.22176131157092602,0.06183173216810287,0.05205769780265103,0.057667011626163625,0.056828840082468454,0.023505412156727516,0.006698581219452229,0.06351424602003262,0.07933786048723956,0.17026754141314315,0.02124532582638858,0.04685390179001559,0.08530475342972785,0.04141670927091213
0.039791454582581195,0.12602548636331362,0.2260237739544995,0.06498009272240464,0.05193368754958831,0.057490811343985225,0.05635731978825731,0.02339699498805633,0.006426427342700614,0.06359246153084672,0.07883359508242063,0.17076329504453744,0.020885444649962316,0.04774040502879147,0.08497421203979719,0.040932794641136534
0.03839100755922167,0.12525023487408873,0.23029699864924408,0.06821839979223604,0.051821707380027074,0.05734626000857881,0.05591674706055436,0.023302282625978717,0.006151876274363939,0.06366485738338387,0.07834911098133934,0.17125568326186036,0.020533661094362138,0.048649320806570674,0.08467228101601647,0.040479009962693775
0.03701648846234375,0.12443543501633957,0.23457836960880485,0.07154696807504718,0.05172197241095716,0.057232352810981386,0.0555068799936269,0.023221657596336487,0.005875114186512752,0.06373092467249293,0.0778833537732524,0.17174352829731435,0.02019006503082311,0.04958022359686083,0.08439886537350333,0.04005512261478317
0.03566812690093203,0.12358045083717542,0.23886509652033788,0.074966009260498,0.051634795453161776,0.0571480393266308,0.05512737513816143,0.02315549702963574,0.005596335015076715,0.06379016476862771,0.07743520490657602,0.17222570884293825,0.01985476648077796,0.05053271811076065,0.08415396846494569,0.039660895163473
0.03434609484613765,0.1226849626069096,0.2431541179658065,0.07847563624829683,0.051560576525822806,0.05709220362109565,0.05477779739089586,0.02310417368654421,0.005315733535818475,0.06384213331040516,0.0770035275663068,0.17270122182576153,0.01952789089311015,0.0515064181705948,0.08393768810601174,0.03929610164896937
0.03305051883279065,0.12174888281594357,0.24744201099166088,0.08207586663962439,0.05149978340833623,0.05706364439278865,0.05445763583405395,0.0230680552975018,0.005033501197338437,0.0638864767248688,0.07658720795819665,0.17316922553951006,0.019209572354008962,0.05250092013039524,0.08375020268007635,0.038960537318178924
0.03178149141333501,0.12077224676725563,0.2517249550761362,0.08576662520003814,0.05145292422849173,0.057061065719322804,0.05416632179409939,0.023047502401428135,0.004749827626599128,0.06392295941232183,0.07618518931367876,0.17362906135915207,0.01889994580553796,0.05351577316352933,0.08359174791213245,0.03865402103027988
0.030539080540895967,0.1197550903310918,0.2559987815726675,0.08954774498759326,0.05142051354385714,0.057083086610646566,0.05390324727086844,0.023042864895607564,0.004464906975690291,0.06395148006076538,0.07579649669183197,0.17408025203748095,0.01859913936440107,0.054550454875465726,0.08346258530138205,0.038376390083857195
0.029323336809699636,0.11869735108922165,0.2602590814480343,0.0934189668388753,0.05140303523701513,0.057128264430361404,0.05366778257341177,0.02305447752367484,0.004178945673127012,0.06397207599461029,0.07542025105535052,0.17452247555480643,0.018307267733171532,0.05560436554518699,0.08336296345751219,0.03812748777293591
0.0281342985651823,0.11759884597076568,0.2645013281583205,0.09737993690898557,0.05140091236219073,0.057195122173173824,0.0534592918070143,0.023082654533782568,0.003892169192128723,0.06398491501276565,0.07505567159965157,0.17495551463630132,0.01802442748850827,0.056676845183016196,0.08329307379928276,0.03790714453553589
0.02697199497461154,0.1164593384659111,0.26872099777775854,0.10143020197068495,0.051414499384547487,0.057282174966918946,0.053277144793658054,0.02312768373630712,0.003604827066823186,0.06399027481469702,0.0747020658881178,0.17537918331124341,0.017750694735288435,0.05776720292349587,0.08325300718367908,0.03771515612881165
0.025836447219050696,0.1152786481736336,0.2729136809321843,0.10556920219426592,0.05144410092534304,0.057387954722260326,0.05312072409473922,0.02318982018139953,0.003317195905575505,0.06398851081269634,0.0743588079594142,0.17579323318392118,0.017486125266422688,0.05887474712725504,0.08324272939923112,0.0375512683363493
0.024727668026505688,0.11405675319058844,0.2770751805704043,0.10979626115445928,0.05149000321183577,0.05751103215126592,0.05298942603926017,0.023269280309941222,0.003029580299591886,0.06398001383125147,0.07402530518798761,0.17619725150043922,0.01723075700835444,0.05999881179317359,0.08326209089115894,0.03741517858909046
0.02364565981191978,0.11279386831457537,0.2812015893187619,0.11411057284470687,0.051552503453155075,0.05765003537327387,0.052882655023523344,0.02336623878801915,0.0027423116898194575,0.06396515983799678,0.0737009552584863,0.176590588465361,0.01698461420608325,0.06113877803011575,0.08331086346908563,0.03730655375062939
0.02259041172069089,0.11149049662210361,0.2852893401933594,0.1185111855231872,0.051631931913928904,0.05780366430272147,0.05279981080627837,0.02348082966103731,0.002455745419085882,0.06394426163239045,0.07338509873692646,0.17697235887479498,0.0167477125472056,0.062294089547575635,0.0833887845636123,0.037225053332224214
0.02156189588775413,0.11014745374551835,0.2893352248731415,0.12299698226981301,0.05172866579551833,0.0579706999843659,0.05274026903549135,0.023613150558107466,0.0021702563404180576,0.06391754683924077,0.07307698452843414,0.17734151947334648,0.016520064269503615,0.06346426139066937,0.0834955976214827,0.03717034940213424
0.020560063224089403,0.10876586578777546,0.2933363746242405,0.12756665819993773,0.05184313457326958,0.05815000803182632,0.0527033565245961,0.02376326749292093,0.001886233459070788,0.06388517767143878,0.07277577020574508,0.17769697874256582,0.016301682256137998,0.06464888144802436,0.083631085397129,0.03714214010916578
0.01958483902781161,0.10734714318643016,0.297290200330119,0.13221869525006885,0.051975816987380366,0.05834053536557301,0.052688328491515085,0.023931219044931697,0.0016040741427554076,0.06384729634261402,0.07248055938525373,0.17803770147756767,0.016092582198662476,0.06584760457693682,0.08379509469921767,0.037140155922676645
0.01863611869008207,0.10589293391891785,0.30119428989080255,0.13695133963185432,0.052127230405129246,0.058541299565516666,0.05269436187183609,0.024117019646565967,0.0013241789992987617,0.06380407139518739,0.07219045596703205,0.17836279459517132,0.015892782090329242,0.06706013949467271,0.08398755147417988,0.03716415826168794
0.017713764317162387,0.10440506020293142,0.3050462634234522,0.1417625911397132,0.052297913723363426,0.058751370373354504,0.05272057171374612,0.02432066184607067,0.001046949467421711,0.06375573508747494,0.0719046166092976,0.1786715695712194,0.015702298579041582,0.06828622885955642,0.0842084655018635,0.03721393075697345
0.016817604117320795,0.10288544328650263,0.3088435890975765,0.1466502084447304,0.05248840532683589,0.058969843209336514,0.05276604094050654,0.0245421174425428,0.000772789070367688,0.06370261013577298,0.07162229442425551,0.17896357810345626,0.015521140031884609,0.06952562319997276,0.08445792442118558,0.0372892639137558
0.01594743544903688,0.10133602105940717,0.31258339509728034,0.15161172470680395,0.052699217834838274,0.05919580499679793,0.05282985029863876,0.02478133743111629,0.0005021064894571614,0.06364512491381177,0.07134287132327831,0.1792386189674601,0.015349298236294887,0.07077804954005545,0.08473607727089676,0.03738993438273053
0.015103029804698048,0.09975866712660605,0.3162623789122494,0.15664446637771134,0.052930811443661775,0.059428296305284435,0.052911102892952255,0.025038250751605647,0.00023531808702739268,0.06358381697606778,0.07106587692261004,0.17949671548861793,0.015186744716507694,0.07204317571903407,0.08504310819549146,0.03751568250891007
0.014284137571050569,0.09815513291276261,0.31987689210067377,0.16174557242870344,0.053183569992756134,0.05966628416930574,0.0530089415439177,0.025312761898610526,-2.7150913073324363e-05,0.06351932548939437,0.0707909925686517,0.17973806451177263,0.015033436670737208,0.07332057559916898,0.08537920140332886,0.03766619740678477
0.013490491884565222,0.09652703881257435,0.3234231522095963,0.16691201307498496,0.053457788197526813,0.059908663880094526,0.05312255762671069,0.0256047475174436,-0.00028486646996935276,0.0634523737669659,0.07051803982964437,0.17996295914417101,0.014889330228958837,0.07460970942427148,0.08574449885114604,0.03784111855782412
0.012721811617381317,0.09487591403244491,0.3268974839912437,0.17214060692627897,0.05375367469532985,0.060154291554464716,0.0532511905794418,0.025914052168826945,-0.0005373867259137449,0.06338374355306024,0.0702469536830037,0.1801716888227415,0.014754395326564201,0.07590993095554155,0.08613905497552188,0.03804005179454678
0.011977803560806693,0.09320325574000628,0.3302965416836781,0.17742803536872379,0.054071364142897434,0.060402031286308826,0.053394117865086396,0.026240483486881537,-0.0007842636150269651,0.06331424298202443,0.06997774154015345,0.1803644244060217,0.014628628959150106,0.07722051503720936,0.08656280202994676,0.038262589260818554
0.011258163897000711,0.09151058231897916,0.33361749663249113,0.18277085288976802,0.05441092874564666,0.06065080215256191,0.05355063579551318,0.026583806972298285,-0.0010250445760949308,0.06324467022972871,0.06971043011915157,0.18054111733876693,0.014512065537506096,0.07854069082101707,0.08701554468566287,0.03850832579259555
0.010562579065105954,0.08979947357795776,0.3368581775700275,0.18816549200580704,0.05477238564770808,0.06089961950252871,0.053720032229739784,0.026943741093799604,-0.0012592736217872111,0.0631757748134936,0.06944500831453007,0.18070146739402598,0.014404783467303993,0.07986967274468255,0.0874969870486088,0.03877686922198344
0.00989072613595493,0.08807159771697907,0.3400171525100068,0.1936082614526967,0.05515570034957537,0.06114762838327991,0.05390155428742301,0.027319954283058175,-0.0014864912881168268,0.06310822287809871,0.06918138914777713,0.18084498383792919,0.014306907411214749,0.08120668715803313,0.08800677503704764,0.039067843810944636
0.009242272810184712,0.08632872544027494,0.34309374376020474,0.1990953363613097,0.0555607868941694,0.06139412733555037,0.05409438143661492,0.02771206500106444,-0.001706233917402302,0.063042581297817,0.06891941532742067,0.1809710994089075,0.014218606085551934,0.08255099347390123,0.08854453743944059,0.03938088645861103
0.008616877149094657,0.08457273209491413,0.3460879709960265,0.20462273927132266,0.0559875057533058,0.06163858127107588,0.054297619901597906,0.02811964404460411,-0.001918033157830104,0.0629793293212039,0.06865890539161897,0.181079285230081,0.014140085850486636,0.08390189889433228,0.08910991974411694,0.03971563579810301
0.008014187137156969,0.08280558910621413,0.3490004215559608,0.2101863110412248,0.05643566041486335,0.061880622686508915,0.05451032325053321,0.028542217454779497,-0.0021214157971697527,0.06291888677104843,0.06839971439457508,0.18116914644180773,0.01407158072366921,0.08525876600949737,0.08970260924500777,0.04007171477921669
0.007433840161259503,0.08102934627190532,0.35183205185730954,0.21578167099276147,0.05690499362303657,0.062120041061894,0.054731526243510964,0.028979269310846285,-0.002315903059453502,0.06286164326993945,0.06814178890433682,0.18124049369572998,0.014013339739790747,0.08662101288079721,0.09032235033686535,0.04044870937454017
0.006875462476122007,0.07924610667363963,0.35458392868908634,0.2214041659816679,0.057395184078789435,0.06235676091692236,0.054960277560677284,0.029430244420054274,-0.002501008644931905,0.06280798294401231,0.0678852091542554,0.18129338688106314,0.013965612792831155,0.08798810558143698,0.09096894937366506,0.04084615173231412
0.006338668709376522,0.07745799607512581,0.35725694363187055,0.22704881168270727,0.05790584419193602,0.06259080963242161,0.055195665842677245,0.029894551026185164,-0.002676235786876334,0.0627583040983918,0.06763021562568687,0.18132814889893534,0.013928637765013319,0.08935954354547676,0.0916422689472035,0.04126351883310997
0.005823061550775104,0.07566712870985712,0.3598516002229935,0.2327102428780356,0.05843651922016549,0.06282227674761685,0.05543683747493377,0.030371563626405078,-0.0028410740014625205,0.06271303348559698,0.06737721823537039,0.1813453488751102,0.013902634433407168,0.09073483843090395,0.09234221191965178,0.0417002485059393
0.005328231996431093,0.07387557132548468,0.3623679976446716,0.23838270093349453,0.058986687861722065,0.06305126695631548,0.05568300499612321,0.030860625915774726,-0.002994995938122559,0.06267263488054788,0.06712678743187539,0.181345755810641,0.013887807816297592,0.09211348749536181,0.0930686959852271,0.042155763221007315
0.00485376043615324,0.07208530793392674,0.36480601961674747,0.24406006959010648,0.05955576410945295,0.06327785083105347,0.05593344549463557,0.031361053778062684,-0.0031374545525120305,0.06263761178287192,0.06687962781644778,0.18133026521891552,0.013884356368829391,0.09349494268638736,0.09382161991666853,0.042629492151385145
0.00439921834832905,0.07029821213192522,0.36716560985940355,0.24973594085451414,0.06014309994016663,0.06350202473477372,0.05618748884900015,0.03187213812263353,-0.0032678807831605424,0.06260850419512616,0.06663653628656366,0.1812998026965848,0.013892479185470727,0.09487857674880816,0.09460082295194756,0.04312088769010629
0.00396417010302178,0.06851603873525326,0.36944702712529875,0.2554036892076836,0.060747988216227636,0.06372369785843861,0.05644449615362416,0.032393147246431324,-0.0033856818693385375,0.06258587957069935,0.06639834800084651,0.18125520954457236,0.013912380347911663,0.09626364765387094,0.095406040573718,0.04362943504480413
0.0035481745996041904,0.06674043825876437,0.37165104261812243,0.2610565452449062,0.061369665026768626,0.0639427114263039,0.056703829142604474,0.032923328295469574,-0.003490240408992051,0.0625703181813244,0.06616587710626134,0.18119713027398787,0.013944270606197523,0.09764926556101157,0.09623686787141367,0.044154653980296006
0.003150786690701127,0.06497298242547765,0.3737790706295568,0.266687665149831,0.062007310604931296,0.06415887362785146,0.05696481367816157,0.03346190732876028,-0.003580914224751801,0.06256239331847277,0.06593986966296563,0.18112595196304074,0.0139883668057699,0.09903437301044932,0.09709274916376573,0.04469609229451322
0.002771558393510645,0.06321518781296287,0.3758332276085153,0.2722901921094363,0.06266004793496112,0.0643719927866582,0.05722670893513269,0.034008087462821066,-0.0036570370818541295,0.06256264691636437,0.06572099165368957,0.18104183381794986,0.014044889626797525,0.10041774684288944,0.09797300060490534,0.045253311158012524
0.0024100398901380307,0.06146853363353081,0.3778163191811715,0.2778573056167314,0.06332693821483987,0.06458190340909557,0.05748870144661843,0.03456104460539886,-0.0037179202801873854,0.06257156136763133,0.0655098549821177,0.1809448019077551,0.014114060273448078,0.10179801648622397,0.0988768510118247,0.04582586298509015
0.0020657803199636035,0.05973447369351831,0.3797317585877949,0.2833822546107533,0.06400697246773596,0.06478848525447012,0.057749931034982396,0.035119920375862194,-0.003762855118019372,0.06258953229877356,0.06530705837454079,0.18083485609060418,0.014196096738528197,0.10317368668326062,0.09980348398902128,0.04641326451754081
0.0017383283695811367,0.05801444284871529,0.3815834233936233,0.2888583705927308,0.06469905879574929,0.06499167604829613,0.05800953429053073,0.035683812022918496,-0.00379111619190071,0.0626168551619748,0.06511322130454897,0.18071206145336832,0.014291210182765954,0.1045431585282051,0.10075207533507909,0.04701497430736644
0.001427232669470232,0.05630985850556458,0.38337546004068884,0.2942790572514133,0.06540200681088684,0.06519147879052312,0.05826668862335596,0.03625176166349878,-0.003801964862774656,0.06265373511540058,0.06492900462418282,0.18057661749869983,0.014399601826413299,0.10590474800480493,0.10172182456611126,0.04763038849028953
0.0011320420110442562,0.05462211790040066,0.3851120477742146,0.29963775374055424,0.06611451642171107,0.06538796477651634,0.058520649891951645,0.03682275194618493,-0.003794650897922386,0.06270031310358089,0.0647551186044477,0.1804289024462692,0.01452146057754245,0.10725670237626278,0.1027119795741202,0.04825885896135635
0.0008523054026478622,0.0529525920144926,0.38679713642214875,0.304927869579404,0.06683518056426753,0.06558127345581662,0.058770781137629916,0.03739571367981728,-0.003768410677661091,0.06275669472648304,0.0645923202695217,0.1802694912889529,0.014656961441040627,0.10859721492998965,0.10372185362630368,0.048899722960932326
0.0005875719879815076,0.051302617048017085,0.38843420868724815,0.3101426901841918,0.06756250362910295,0.06577161012308493,0.05901657031707205,0.037969542445814373,-0.003722462849546907,0.06282297534455311,0.06444140268884602,0.18009914748799613,0.014806264587021386,0.10992443864393801,0.10475083410277317,0.049552331911879674
0.0003373908548449584,0.04967348438268728,0.3900261773319687,0.3152752532643482,0.06829492862190253,0.06595924219849149,0.05925763544784416,0.038543118093922996,-0.0036560034159782875,0.06289925955782016,0.0643031792039136,0.1799187893561389,0.014969514824946418,0.11123649929322682,0.10579838256364836,0.05021607467346581
0.00010131086196562322,0.0480664299160371,0.39157547802170917,0.3203182121105985,0.06903086635946559,0.06614449454811705,0.059493716246174305,0.03911532419745501,-0.003568201337645376,0.06298567383481847,0.06417846542933582,0.1797294332416257,0.015146841142632306,0.11253150834236986,0.10686402593081931,0.05089039371582564
-0.00012111919412837699,0.04648262355895639,0.3930842764270013,0.32526374304882527,0.06976872370199826,0.06632774395754805,0.05972465210980894,0.03968506623430497,-0.0034581950605347676,0.06308237140353076,0.06406806136922148,0.1795321165798177,0.015338355934223667,0.11380757566983948,0.10794733876512923,0.0515747931957923
-0.00033034985798744467,0.04492315966306876,0.39455467737494665,0.33010356418583414,0.07050692902687539,0.06650941254130548,0.0599503471317261,0.04025128715915957,-0.003325090266882151,0.06318952895078334,0.06397273526351197,0.17932780471219278,0.015544153559736566,0.11506282176662536,0.10904791681913681,0.052268838450658835
-0.00052682994660423,0.04338905007619277,0.3959888944575245,0.3348290669776108,0.07124395311612158,0.06668995958036414,0.06017072365930707,0.04081297900019985,-0.003167959074237476,0.06330733516955826,0.06389320997055524,0.17911729119004263,0.015764307948792695,0.11629538857850048,0.11016534225367738,0.05297214697111747
-0.0007110054705442045,0.04188122276263776,0.3973893740431929,0.33943150256776267,0.07197832371068334,0.06686987105682998,0.06038567197501043,0.04136918916212666,-0.0029858408020827327,0.06343597169782035,0.06383015193195941,0.17890112083618,0.0159988692758094,0.11750344768180386,0.11129914112759273,0.05368437141916341
-0.0008833186892049055,0.04040052671819763,0.39875886958553286,0.34390217499146325,0.07270863218406483,0.06704964601943471,0.06059501781635789,0.04191902025682816,-0.00277774430333846,0.06357558746124639,0.06378416215101974,0.1786795763693305,0.01624786084189795,0.11868520406619416,0.1124487340055735,0.05440517567989033
-0.0010442073293473685,0.03894773968514254,0.40010046405932465,0.3482326224731041,0.07343353110445186,0.06722977888180473,0.06079852988173514,0.04246162252066516,-0.0025426517317406953,0.06372626848050815,0.06375576820567669,0.17845273590057353,0.016511278414931253,0.11983889351818598,0.11361338735679152,0.055134205249596266
-0.001194103984288824,0.037523575015035636,0.40141754024298043,0.3524147766251251,0.0741517218776839,0.06741073684053106,0.06099596356713155,0.04299617821516565,-0.0022795234985213114,0.06388801068008643,0.06374541613312851,0.17822056337249603,0.01678909309512516,0.1209627715185465,0.11479218802277295,0.055871055118564536
-0.0013334357044361047,0.0361286867275583,0.40271370039585563,0.35644108928961704,0.07486193217343366,0.06759293181085216,0.061187117546113265,0.04352187784028715,-0.001987303978185652,0.06406071021988442,0.06375346105723198,0.17798299431967107,0.017081256223152846,0.12205509172464624,0.11598405897482066,0.0566152445728607
-0.001462623782611311,0.03476367301922915,0.40399263866498786,0.3603046172434059,0.07556288340539082,0.0677766908455417,0.06137188608413127,0.04403789040169573,-0.0016649266919810189,0.06424417834043421,0.06378015609631878,0.17774000374447113,0.01738770426174299,0.12311407251559446,0.11718780670021056,0.0573662121541269
-0.0015820837302058808,0.03342907851580111,0.40525797133262625,0.3639990560667064,0.0762532491283325,0.067962239731694,0.06155030127695488,0.04454333840167203,-0.0013113167373943694,0.0644381700524325,0.06382564237326346,0.17749165319061722,0.017708362565065285,0.12413785071208785,0.11840217810648117,0.058123333587391565
-0.0016922254329234515,0.032125395571231896,0.40651303181638093,0.36751871618288956,0.07693161260017889,0.06814971465533363,0.06172256295115509,0.04503729516567706,-0.0009253895845086848,0.06464241267981782,0.06388994723067142,0.17723811517571766,0.01804314747902037,0.12512442697996076,0.11962591553331807,0.058885951224392837
-0.0017934534680571178,0.030853064898963757,0.40776066338859224,0.3708584364046312,0.07759644645842871,0.06833919914479324,0.061889054638112805,0.04551881104854022,-0.0005060481619787688,0.0648566287968335,0.06397299490804581,0.17697967428388522,0.018391966351653608,0.12607162404258399,0.12085780674131326,0.059653403517891924
-0.0018861675418135671,0.029612475784378176,0.4090030994116578,0.37401343321845937,0.07824613193829073,0.06853077189890544,0.06205034476983786,0.04598695616448772,-5.218054473529321e-05,0.06508055232433671,0.06407462558765618,0.17671670535663042,0.018754715228531935,0.12697708879693043,0.1220967278465057,0.060425050539233464
-0.0019707628743452182,0.028403966078726563,0.4102420084916383,0.3769790874043052,0.07887900640626985,0.06872455583192817,0.06220717300831826,0.046440864787157476,0.0004373409341610757,0.06531393690435404,0.0641946164443462,0.1764496302973827,0.01913127423588241,0.12783834659193669,0.12334167730828448,0.06120029457121603
-0.0020476301931789094,0.02722782212300667,0.41147866907841896,0.37975067358451353,0.07949341713936248,0.06892076466266037,0.06236042237830189,0.04687977477505389,0.000963659087152732,0.06555655606256162,0.0643327016416093,0.17617885597409252,0.019521500973079954,0.12865288495421306,0.12459179930804344,0.061978594907621844
-0.0021171551631506084,0.026084278702442846,0.41271417524849435,0.38232308973445106,0.08008777085729926,0.06911974460158883,0.06251107859744551,0.04730305901894876,0.001527929858092895,0.06580819507932482,0.06448858995886468,0.17590469652737264,0.01992522369353601,0.1294182427828221,0.12584639517206034,0.0627594761135552
-0.0021797174827607856,0.02497351917204849,0.41394961317389606,0.38469074135280096,0.08066057601044672,0.0693220087418829,0.06266017865856735,0.047710246186372124,0.002131319073859331,0.06606863490442172,0.06466197897451154,0.1756272870310693,0.02034223822407022,0.13013209490570735,0.12710492188442774,0.06354252916701283
-0.002235689956764366,0.02389567615947316,0.41518618819400316,0.38684768831089206,0.08121047558896266,0.06952826196715083,0.06280875293180875,0.04810102856221434,0.0027749982409226723,0.06633762885057748,0.06485256511516448,0.1753465113814507,0.02077231100539594,0.13079232725648757,0.12836697719086276,0.06432740512285588
-0.0022854376679796295,0.022850833400943203,0.4164252925289301,0.3887879668885798,0.08173626859651358,0.06973941453919837,0.06295777539847665,0.048475255535796936,0.003460140024446853,0.06661487316640217,0.06506004932397656,0.1750619826819018,0.02121518583922755,0.13139709804676894,0.12963227129591998,0.06511380121513347
-0.0023293172817131385,0.021839028725993307,0.4176685070980647,0.39050593861907096,0.0822369187741554,0.06995658300178222,0.06310814784226945,0.04883291221993559,0.00418791475536499,0.06689997689624665,0.0652841385034272,0.17477308988202916,0.021670590629360997,0.13194488070761212,0.1309005856870556,0.06590143963146836
-0.0023676765139165113,0.020860257525486713,0.41891753514821295,0.3919966016284024,0.0827115496531196,0.07018107760306683,0.06326072841057376,0.049174083737624726,0.004959489087409609,0.06719244544466718,0.06552454317537242,0.17447907954039843,0.0221382425059719,0.13243448505193525,0.1321717201601789,0.06669003953468819
-0.0024008537909749332,0.01991447610700598,0.4201740701211367,0.39325584563691013,0.08315942555132196,0.07041437606724707,0.06341638400903787,0.049498906787437916,0.0057760262640285335,0.06749168966718562,0.06578097193731611,0.1741791365944759,0.022617850876148995,0.13286505405233992,0.13344542965079478,0.0674792832473075
-0.002429178124516467,0.01900160476279384,0.421439604990259,0.39428063431064825,0.08357991870199781,0.07065808420148999,0.06357604169893961,0.049807516128313294,0.006638686409232355,0.06779705445548749,0.06605312328228385,0.17387245076273342,0.023109118093329443,0.13323603480346252,0.1347213530240156,0.06826878057813011
-0.002452969218386304,0.018121530522487647,0.42271521202037904,0.39506910243153387,0.08397246330599054,0.07091388447817795,0.06374072986653666,0.05010000796384679,0.007548625794011149,0.06810785218001073,0.066340675223501,0.17355826564179075,0.023611737605866243,0.13354712358993764,0.13599894624786543,0.06905804353002508
-0.002472537816622413,0.017274109543856837,0.42400137839970875,0.3956205601667227,0.08433649791645761,0.07118347435897662,0.06391160742361518,0.05037644391509269,0.008506994783867987,0.06842339291626041,0.06664327297319005,0.17323590832180352,0.02412538962262447,0.13379818643350577,0.13727745168637379,0.0698464857931435
-0.0024881862908221588,0.01645916907696398,0.4252980018289525,0.39593540223339035,0.08467140369240118,0.07146850447141036,0.06408998005380698,0.05063689325086257,0.0095149344518008,0.06874300915529884,0.06696051471874384,0.17290479815525148,0.024649734513595076,0.1339891579506061,0.13855592385957025,0.07063344701331634
-0.0025002094529352763,0.015676508926039306,0.42660455227822464,0.3960149255757439,0.0849764621634167,0.0717705445201416,0.0642773033124534,0.050881488790273315,0.010573572535200464,0.06906607384773454,0.0672919353634504,0.1725644341450146,0.025184404336680635,0.13411992857560587,0.13983329081885013,0.07141822772446739
-0.002508895448817314,0.014925902334148674,0.427920300703459,0.3958610648550637,0.08525085973750096,0.07209110023820164,0.06447517316117954,0.05111047714925429,0.011684020706384593,0.06939201096733111,0.06763698798457284,0.17221436124435424,0.025728993961291986,0.13419025464624612,0.14110841943371505,0.07220012312686559
-0.002514526287905405,0.01420709623239384,0.42924452506780686,0.39547606014998327,0.08549373836933005,0.07243166965809202,0.06468530521800331,0.051324256699538946,0.012847374730795266,0.06972029813327679,0.0679950245728275,0.17185411667184342,0.026283055410088622,0.13419974301417412,0.1423801725199034,0.07297845172585204
-0.002517377569936322,0.01351981105785516,0.4305766602684861,0.39486208932811095,0.0857042658710642,0.072793809240685,0.06490950458398644,0.0515234011820677,0.014064716788430439,0.0700504611705922,0.0683652831325668,0.17148315813406423,0.026846098354498703,0.13414792368176565,0.14364745605524346,0.07375257765597444
-0.002517717505046747,0.01286374105036108,0.4319163813445488,0.3940209656434752,0.08588170394507928,0.07317919295267598,0.06514962853303594,0.051708667950993784,0.01533711832738203,0.070382060794589,0.06874689035727727,0.17110077982437918,0.027417595192563694,0.13403436689826626,0.14490925537516167,0.07452192584984166
-0.0025158056913121567,0.012238556187385324,0.4332636138396652,0.392954058434961,0.08602546596775,0.07358965913716113,0.06540754459945772,0.05188099087831429,0.01666564262594689,0.0707146718662912,0.06913888095210224,0.17070604024149147,0.027996986828041363,0.13385879847543375,0.14616465990968014,0.07528598958378868
-0.0025118919755500306,0.011643905889713433,0.4346184700415228,0.3916624848333664,0.08613516132134226,0.07402724255478027,0.06568508665819424,0.05204145893516256,0.018051346715733916,0.0710478558789532,0.06954022615822557,0.1702977451705746,0.028583686963482527,0.1336211962046055,0.14741287664743025,0.0760443303142462
-0.0025062155206111575,0.011079423564476953,0.4359811146711436,0.3901474373671095,0.08621062364496135,0.0744941897903995,0.06598401445952726,0.05219128231209009,0.019495282340366814,0.07138112750533597,0.06994986481200305,0.1698745045430252,0.029177084482311624,0.13332186302119717,0.1486532330256195,0.0767965700746535
-0.002499004145631165,0.010544731104854413,0.437351568113634,0.38841049884872797,0.08625192114402788,0.07499295721242041,0.0663059885898936,0.05233174859620486,0.020998495663554953,0.07171391953977715,0.07036673417031494,0.16943483178825777,0.0297765440635035,0.13296147394762425,0.149885170298491,0.0775423769975004
-0.0024904739904693897,0.010039442911949874,0.43872947026068143,0.38645389221332954,0.08625934802574177,0.07552619175710573,0.06665257022596095,0.052464171959473664,0.022562025493198034,0.07204555986273693,0.07078979879491568,0.16897724616487853,0.030381405436063033,0.1325410953608632,0.15110822860199596,0.07828144473235502
-0.00248082953493171,0.009563169159227477,0.44011388068203977,0.3842806569902602,0.0862333971633081,0.07609669589136892,0.06702523926457842,0.052589842600707454,0.02418689985118217,0.07237527568094765,0.07121807555739097,0.1685003618091307,0.03099098187826667,0.13206217665686318,0.1523220249052244,0.07901346663780709
-0.002470263979028444,0.00911551804968901,0.44150323443607986,0.3818947486770595,0.08617471516722162,0.07670737908539058,0.06742541597181319,0.05270999387305709,0.025874130787895678,0.07270222430907118,0.0716506527759813,0.16800295805030088,0.03160455866377761,0.13152651581308397,0.15352622484102216,0.07973810564246049
-0.0024589599647404903,0.008696096873944225,0.44289549323964605,0.3793010616294007,0.08608404207933844,0.07736119891625781,0.06785447783534328,0.052825803416446326,0.0276247074125321,0.0730255359491475,0.07208670165118382,0.1674840261364216,0.03222139213549166,0.1309362015985513,0.15472050908423088,0.08045496062294052
-0.002447090595216993,0.008304511759740153,0.4442883981347221,0.3765053799248833,0.08596213882181815,0.07806109546640301,0.0683137705328747,0.052938422963093305,0.029439587181276844,0.07334435706169294,0.07252547851334905,0.16694278848632743,0.032840709948374965,0.13029353619169756,0.1559045345614234,0.08116353182872857
-0.002434820686672644,0.00794036610377026,0.44567971648096505,0.3735142638257771,0.08580971359937985,0.07880993049546377,0.06880461390371255,0.05304901622129404,0.03131968593661655,0.07365789030648469,0.07296631688268139,0.1663786879114608,0.03346171278047395,0.12960094270814243,0.15707789041010117,0.08186319449121253
-0.002422308049894951,0.007603257785718561,0.4470674415558057,0.3703348818589455,0.08562737655184496,0.07961045716932966,0.06932830407819578,0.05315879081803493,0.033265868918246816,0.07396542917714502,0.07340860890651457,0.1657913458709383,0.034083577495137504,0.1288608626000328,0.1582400483404016,0.0825531942887531
-0.002409704296793872,0.007292775866820069,0.44844993312387676,0.3669748001241986,0.08541564954578425,0.08046533538235184,0.06988611303171878,0.053269020633144565,0.03527894650255121,0.07426638542717276,0.07385177632730723,0.1651804906429291,0.03470546138493672,0.12807565373290522,0.15939030695978537,0.08323266808108074
-0.0023971547196312937,0.00700849875900094,0.44982599063342166,0.36344174126803364,0.08517502177656952,0.081377173479116,0.0704792867915069,0.05338105815562246,0.03735967621226439,0.07456030748118281,0.07429523171810216,0.16454585819694234,0.03532650678246486,0.12724751767870407,0.16052773609120807,0.08390067858519727
-0.0023847974101848615,0.006749995756392559,0.45119485440312024,0.3597433256943936,0.08490601853803716,0.08234856859104599,0.07110904335299176,0.053496337091530614,0.03950876857901648,0.074846888268387,0.07473833332980896,0.1638870788770405,0.03594584503128533,0.1263784901521997,0.16165114346694115,0.08455625141084458
-0.00237276217477432,0.006516831424455086,0.4525561340718679,0.3558868273858826,0.08460926187820443,0.08338213487534887,0.07177657108450654,0.05361636600291973,0.04172689394428244,0.0751259613091505,0.0751803469986434,0.16320359227647116,0.03656259861551426,0.1254704937146852,0.16275908735772476,0.08519841043656032
-0.002361169599334876,0.006308570728368905,0.4539096674711232,0.351879024918597,0.0842855171482599,0.0844805185174801,0.0724830280453436,0.053742714228267326,0.044014689080827354,0.07539748441018512,0.07562043779603655,0.16249464578317283,0.037175880183996646,0.12452541514001984,0.1638499314055472,0.08582621039299386
-0.002350130355048277,0.006124783436964467,0.45525531673022646,0.3477262200755343,0.08393572386913162,0.08564639946851599,0.07322954224832466,0.053876991697815874,0.04637276327442039,0.07566151094125302,0.07605769991674338,0.1617593842513262,0.037784787295374066,0.1235451756254043,0.16492191833419143,0.08643876534441368
-0.0023397447585190934,0.005965047302153847,0.45659271165867765,0.34343439299242384,0.08356101021984312,0.08688248067089119,0.07401721250265328,0.05402082448649942,0.04880170346497434,0.07591814932695012,0.07649120763505317,0.16099698100144944,0.03838839195649674,0.12253178450764542,0.16597324618416592,0.08703527162152365
-0.002330102585759799,0.005828949829172594,0.4579209856593161,0.3390093962924014,0.0831626912946745,0.08819146620303975,0.07484710911646697,0.05417582802400568,0.051302077999611444,0.07616751203948133,0.0769200668588277,0.16020676253644717,0.038985725670176136,0.12148737571944679,0.16700214119900159,0.08761502369064676
-0.002321283127350767,0.005716088564410095,0.4592386251550711,0.33445712597605004,0.08274225204508844,0.08957603031491918,0.07572027346081314,0.05434357979776432,0.05387443850544217,0.07640966048681515,0.07734345887384443,0.15938830876651577,0.039575766345389576,0.12041422713119625,0.16800692389391939,0.0881774214727486
-0.0023133554633192137,0.0056260699376102655,0.4605435365404858,0.32978365419265376,0.08230131649082222,0.09103877971820541,0.07663771523338514,0.05452559319883414,0.056519319359123035,0.07664456606552571,0.07776067335499116,0.158541522578226,0.04015743832885681,0.11931476377098825,0.1689860647731954,0.08872196776997832
-0.002306378930427772,0.005558506792676844,0.4618332854083135,0.32499532240494966,0.08184160533430132,0.09258221293088817,0.07760040623957007,0.05472329595752611,0.059237234227609105,0.07687211188134128,0.07817112812321007,0.15766666449658168,0.040729630504325424,0.11819154665946335,0.16993822633365666,0.08924825472861371
-0.002300403751370732,0.005513014818289641,0.4631053817991656,0.32009879506790656,0.08136488453269455,0.09420868628776698,0.07860926964678118,0.054938019797478095,0.062028669193153994,0.07709213609666471,0.07857437373451201,0.15676435045498024,0.04129122574310352,0.11704724959885053,0.1708622883847984,0.08975593866877697
-0.0022954717944166916,0.005489208222296761,0.4643575361230186,0.31510107540244003,0.08087290766716407,0.09592040085381746,0.07966516396537618,0.05517100395867636,0.06489407206452735,0.07730449384473274,0.07897008180124325,0.1558355131537259,0.041841132829785244,0.11588462668245957,0.17175735430958977,0.09024470313811798
-0.002291617432788288,0.00548669576439535,0.4655878626761178,0.31000948612011325,0.08036735922109114,0.09771941359327681,0.08076886144442333,0.05542340594405415,0.06783383761732044,0.07750911772483329,0.07935801694717687,0.1548813299655835,0.042378316399396786,0.11470647351277115,0.17262273665696476,0.09071421068418205
-0.0022888684710323398,0.005505079306911278,0.46679501973741433,0.30483161901528444,0.07984981693034761,0.09960765889352449,0.08192102275598133,0.05569631193523924,0.0708482886918962,0.0777060697045152,0.07973799343912243,0.1539031226222589,0.04290182240742143,0.11351558511623847,0.17345792136343052,0.09116404857387922
-0.0022872469792767523,0.005543955966034226,0.46797827832799765,0.29957525816607106,0.07932175174092929,0.10158696569272693,0.0831221764307874,0.05599074501714592,0.07393765333791723,0.07789558186204341,0.08010981873749881,0.15290223576759762,0.04341079679686705,0.11231471332280636,0.17426251090524114,0.09159368781771403
-0.0022867696436577913,0.0056029223136977386,0.4691375152888301,0.2942482820635824,0.07878456125239444,0.10365906498425974,0.08437271573646726,0.0563076718783724,0.0771020417050082,0.0780780838638855,0.0804732343696792,0.15187991304187726,0.04390449539730597,0.11110652596242111,0.17503614773372403,0.09200248205722668
-0.002287447391535154,0.005681578568213346,0.4702731301867692,0.28885855031861757,0.07823961411460899,0.1058255868719922,0.0856729162808089,0.05664800849898012,0.08034143309599452,0.07825421566478152,0.08082788110519748,0.1508372160490874,0.04438228366120767,0.10989356966515275,0.17577842038691846,0.09238971095726277
-0.0022892845568242264,0.005779531993696252,0.47138588946947707,0.28341378068433554,0.07768828879117488,0.10808804698901897,0.08702296412834551,0.05701262505715719,0.08365568074902185,0.07842482462877987,0.08117331092644138,0.14977502956682845,0.04484362555781648,0.10867823739719892,0.1764887613151969,0.0927546452858061
-0.002292277977056869,0.005896399363915705,0.4724767050192251,0.2779214219986312,0.07713200209782686,0.11044782277540341,0.08842298345531818,0.057402349945038705,0.08704452901726095,0.07859094707439165,0.08150903444760056,0.14869414080585389,0.0452880617301018,0.10746274189079426,0.17716636742326447,0.09309661107505782
-0.002296416173180624,0.006031808389038406,0.4735463575912044,0.272388538436767,0.07657222702685586,0.1129061240483571,0.08987305913681247,0.057817972456551125,0.09050763348296852,0.07875377510596455,0.08183457412338108,0.14759533997213983,0.04571517779456557,0.1062490982528243,0.1778101881485936,0.09341504370894418
-0.0023016786450352545,0.0061853980461590505,0.4745952026242643,0.26682174369803646,0.0760105000079117,0.11546397152833693,0.091373252488712,0.05826024346886628,0.09404457999992062,0.07891461044869523,0.08214950519900413,0.1464795055289688,0.04612456435158555,0.1050391202684989,0.1784189910404193,0.09370952821662351
-0.0023080353177221693,0.006356817795961835,0.47562296643758883,0.2612272179272526,0.0754484183572992,0.11812219827734959,0.0929236088855775,0.058729873340280944,0.09765490157512394,0.0790748077827634,0.08245347874601289,0.1453476646698132,0.04651577691864437,0.10383442979570556,0.17899146614775877,0.09397982276243362
-0.0023154461744889186,0.006545725708354578,0.47662875473370614,0.2556107890810636,0.07488762918531759,0.12088147335506912,0.09452415662100744,0.0592275263219071,0.10133809204824633,0.07923571069158858,0.08274622468432931,0.14420102846770497,0.04688831669678788,0.10263647247098621,0.17952632970869614,0.09422586332757922
-0.0023238611091777927,0.006751785559382815,0.4776112674417598,0.2499780306729677,0.07432981142211521,0.12374233360920672,0.09617489711037387,0.05975381102916132,0.10509361562367416,0.07939859060784873,0.08302753427358614,0.14304100280157336,0.04724164689609226,0.1014465343490634,0.18002241273213124,0.09444774880050137
-0.002333220024902251,0.006974662999399859,0.47856909516617274,0.24433434705062476,0.07377665285602139,0.12670521198865736,0.09787578728406493,0.060309266912767376,0.10892091145096736,0.07956461360731641,0.08329722326037713,0.14186917750587302,0.04757523296632204,0.10026575871232168,0.18047873058074335,0.0946457070229544
-0.002343453195159005,0.007214020926896152,0.479500995064513,0.2386850400346596,0.0732298241400945,0.1297704573730558,0.0996267157019054,0.060894347675061966,0.11281939262827682,0.07973485292845013,0.0835550785516573,0.1406872971999989,0.04788858619006498,0.09909516371163704,0.18089453057396424,0.09482004365164524
-0.0023544818895396696,0.007469514799284111,0.48040611066361333,0.23303535674465198,0.072690951617831,0.13293834327842538,0.10142747445792981,0.061509406141920034,0.11678843921215211,0.07991033303599193,0.0838008018287855,0.13949721790709274,0.048181301506670195,0.09793566106075444,0.18126931567001842,0.09497107686722008
-0.0023662192497392125,0.007740789893344216,0.48128412379180785,0.2273905191460525,0.07216159057100414,0.13620906356978532,0.10327772927535452,0.062154688766904574,0.12082738504738647,0.08009207827279369,0.08403398232955578,0.13830085386431862,0.048453087444183154,0.096788075551456,0.18160284339461297,0.09509906636850242
-0.002378571335066837,0.008027482195989706,0.4821353303772445,0.22175573646844443,0.07164320013853494,0.13958271431010705,0.1051769902764325,0.06283034304450413,0.1249354984723801,0.08028115311517994,0.08425412025647769,0.13710011887284,0.04870378679045086,0.09565316475788435,0.18189510030047837,0.09520416016631765
-0.0023914380065539528,0.008329222112274924,0.4829606361387804,0.21613620215514803,0.07113712233004323,0.1430592620133046,0.10712458641253512,0.06353643117234165,0.1291119571970411,0.0804786919548124,0.08446068136570357,0.1358968661720763,0.04893338707408203,0.09453163801090021,0.18214625331127152,0.09528638840093952
-0.002404713088539672,0.008645638957992578,0.4837614729349639,0.2105370773972148,0.07064457057350329,0.14663849972893397,0.10911964732004924,0.06427294165727698,0.13335581787608689,0.08068591845318007,0.08465315004567002,0.13469283020978898,0.04914202037284374,0.09342417357583317,0.18235658027654497,0.09534570614655592
-0.002418283594265516,0.008976365114709306,0.48453964140109224,0.20496346357794748,0.07016663150806263,0.15031999926345868,0.11116109388904849,0.06503979533569869,0.1376659810919537,0.08090415508923514,0.08483106597979832,0.13348957289632485,0.04932995241813045,0.09233143295878272,0.18252638289977136,0.09538205624064425
-0.0024320284378867123,0.00932103952610048,0.4852970900974053,0.19942036610933803,0.06970427605469963,0.15410308143658427,0.11324763345284838,0.06583684481284867,0.14204115259871355,0.08113482391130789,0.08499404066206784,0.13228843980617327,0.04949756141976993,0.09125407137298261,0.1826558858644351,0.09539542577781705
-0.0024458171401359643,0.00967931035824276,0.4860356453048614,0.19391265218621043,0.06925837271605688,0.15798682250493964,0.115377755742966,0.06666386691474332,0.14647980528194043,0.08137943970810742,0.08514175217546038,0.13109053824784128,0.04964530749308493,0.09019274357907335,0.18274513285878416,0.09538588713987987
-0.0024595087363199278,0.010050836674434932,0.48675671855197966,0.18844500492829186,0.06882969987805825,0.1619700881560663,0.11754973212522307,0.0675205483915889,0.15098015433307854,0.08163959685644709,0.08527391853974037,0.12989674357194184,0.0497736940198775,0.08914810453084845,0.18279391107151102,0.09535362140418374
-0.0024729509570404515,0.010435289011085038,0.48746106753471247,0.18302187623892405,0.06841895703754791,0.16605157309445087,0.11976162196942723,0.06840646869455141,0.15554015643838592,0.08191695103034184,0.08539025172911777,0.12870772270586645,0.049883222863727525,0.08812080447869702,0.18280174392036466,0.09529892301163222
-0.0024859797393716847,0.010832348784109653,0.48814872505016743,0.17764744103862323,0.06802677533682598,0.17022983374281253,0.12201128487259874,0.06932109052874857,0.16015752835222147,0.08221319681909636,0.08549040172359877,0.12752395966326854,0.04997435230404617,0.08711147838854469,0.182767954613083,0.09522218566493529
-0.0024984191092386216,0.011241706502460435,0.4888191262694503,0.17232556144783034,0.06765372755880504,0.17450331054493892,0.12429639478912581,0.07026376698357516,0.16482977236587662,0.08253004214906773,0.0855739169324814,0.1263457776754133,0.050047478732204026,0.0861207297221935,0.18269176138611612,0.09512387052158192
-0.002510081455130735,0.011663058812814835,0.4894713299748958,0.1670597780182362,0.06730033747489053,0.1788703385548158,0.1266144531658778,0.07123376112587497,0.16955420202484087,0.08286918027216213,0.08564025026231516,0.1251733587587399,0.05010295482224078,0.08514910880535212,0.18257236954740272,0.0950044587984689
-0.0025207681902487075,0.012096104442732136,0.49010422330392106,0.1618533349637394,0.0669670881831266,0.1833291458275952,0.12896279894586732,0.0722302678675061,0.17432796691851357,0.08323225999586548,0.08568881022388938,0.1240067621563449,0.05014112970737286,0.0841970861984767,0.18240904905939892,0.09486439186484791
-0.0025302707764410146,0.012540539145004088,0.49071667443440525,0.15670922316719418,0.06665442886315162,0.18787783982086997,0.13133861341932931,0.07325243230171753,0.17914807639164118,0.08362085478983186,0.08571902928882595,0.12284594286733744,0.050162389841723484,0.08326502336336195,0.18220119540145435,0.0947040107714517
-0.0025383720608811305,0.012996049771383616,0.49130763211042905,0.15163022182078262,0.06636277923492111,0.1925143825175398,0.133738918118291,0.07429936229457795,0.18401142201442192,0.08403643140176045,0.08573042651924004,0.12169077112495365,0.05016719217597691,0.08235314988283364,0.18194837216502777,0.09452352447556123
-0.0025448476474047342,0.013462308006482697,0.491876175173792,0.1466189326029908,0.06609253095803537,0.19723655528474743,0.1361605642645682,0.07537013385147963,0.1889147985493299,0.08448032208742438,0.08572265604353213,0.12054105323429569,0.05015608811220689,0.0814615617835091,0.18165033453487847,0.09432302818636379
-0.0025494665691282105,0.013938965567133773,0.4924215186245839,0.14167780639581784,0.06584404525678589,0.20204191461318488,0.13860021268794243,0.0764637882361144,0.1938549229717327,0.08495371131278918,0.08569553825067823,0.11939655366975331,0.05012973730913208,0.08059024521251072,0.18130703346014765,0.09410255608724981
-0.0025519907030830814,0.014425653285723823,0.49294298478625503,0.13680916279893718,0.06561764620389927,0.20692773988907434,0.14105430631342544,0.07757932032922123,0.198828450853815,0.0854576436516984,0.08564907159099312,0.11825701780112556,0.05008891106160668,0.07973911355643887,0.18091860089783005,0.09386213751345251
-0.0025521732816781023,0.014921984473116483,0.49343994867926977,0.1320152029146579,0.0654136093373635,0.21189097938851678,0.14351904734366788,0.07871565824154471,0.20383198913314973,0.08599304490159966,0.08558342393522475,0.11712219411044895,0.05003448561513863,0.07890804486713951,0.18048531700840165,0.09360184075715233
-0.002549757224620798,0.015427560545498315,0.49391176573181184,0.12729801605546348,0.06523214560520464,0.21692821367550225,0.14599039819692716,0.0798716358766545,0.20886210399368665,0.08656074482490612,0.08549890354139007,0.11599185432458385,0.0499674263409422,0.07809691423522483,0.18000756060496928,0.0933218003167483
-0.0025444736505062554,0.01594197703479343,0.49435768775135447,0.12265958116286084,0.06507338139753009,0.22203565648113147,0.1484641132701415,0.08104596732109164,0.2139153223298617,0.08716149742852569,0.08539591080433072,0.11486580956755424,0.04988876414523796,0.07730561906535187,0.17948574451962862,0.09302222582808471
-0.0025360406670826012,0.01646482934621041,0.494776770141117,0.11810176382153208,0.0649373397549911,0.22720919053793032,0.1509357905684311,0.08223724018724493,0.21898812508806662,0.0877959987207595,0.08527487309972931,0.11374392047497732,0.049799565791608096,0.07653409544526543,0.17892023787317135,0.09270339216332024
-0.0025241625029347047,0.01699571806468619,0.49516777029221637,0.1136263098065542,0.06482393404742774,0.23244441899034016,0.15340093024746787,0.08344393682067716,0.22407693072374796,0.08846490213995588,0.0851361736147564,0.11262609924755827,0.04970089997106431,0.075782324234784,0.1783112775315783,0.09236561145121462
-0.002508529030355737,0.01753425358359187,0.49552903454484765,0.10923483611515988,0.0647329805075927,0.23773671835463925,0.1558549940743603,0.08466447325196536,0.22917806710540073,0.08916883193923693,0.08498010515566695,0.11151230187457739,0.0495938020185704,0.075050326110532,0.17765888096993576,0.09200918896694578
-0.002488815715062804,0.018080059799404687,0.49585836961097024,0.10492882041091901,0.06466422210119287,0.2430812877377096,0.15829346244916964,0.08589724162465015,0.2342877304498832,0.08990839479655816,0.08480688055360498,0.1104025092322149,0.04947924543490784,0.07433814554120485,0.17696279603933313,0.09163436799371343
-0.0024646840128568774,0.018632776590897973,0.4961528991953317,0.10070958975134821,0.0646173527651416,0.24847319080426392,0.16071188544143625,0.0871406498111013,0.2394019302780075,0.09068418979270547,0.08461669405040338,0.10929669642784479,0.04935813323040186,0.07364582447085269,0.1762225205894135,0.09124128107755544
-0.002435782215903516,0.019192060787919143,0.4964089399854087,0.09657830938504482,0.06459203721212245,0.2539073864342261,0.16310592431560964,0.08839315570359751,0.24451641990762152,0.09149681668337963,0.08440979931670266,0.10819479056445655,0.049231312978102126,0.07297336727768308,0.17543738078061552,0.09082993753086581
-0.00240174673181301,0.019757585340905916,0.49662197499613703,0.09253597265560753,0.06458792471026309,0.2593787436895076,0.1654713802542753,0.08965329368197508,0.24962661728357385,0.09234688213112852,0.08418657841812216,0.10709661943668893,0.049099603794321336,0.07232070241457035,0.17460662983080777,0.09040025939340378
-0.002362203757414273,0.020329036435355816,0.49678676797642873,0.08858339496727163,0.06460465557392378,0.26488203672231153,0.1678042074289035,0.090919690889917,0.25472754009408866,0.09323500331544746,0.08394759255859695,0.10600186528138276,0.048963822397239634,0.07168765554296702,0.17372954304941082,0.08995214362482387
-0.0023167711453587936,0.02090610836065445,0.4968975708861102,0.08472121662132434,0.06464185955564564,0.27041191569284384,0.17010050818745803,0.09219107122387221,0.2598137943904187,0.09416180815627917,0.08369361109644727,0.10491005253847091,0.048824803919132145,0.07107395058733272,0.1728055019282161,0.08948552313703965
-0.00226505979760468,0.021488496040715593,0.4969483545121405,0.08094991552372324,0.06469914587468845,0.27596285067896437,0.1723565088827164,0.09346624537030064,0.2648796312271823,0.09512793130073477,0.08342561701338783,0.10382058471971548,0.048683416920407396,0.07047923749239875,0.17183406395879222,0.08900041575888656
-0.0022066737362959844,0.02207588525959803,0.49693303065580263,0.07726982436381426,0.06477608520816874,0.2815290469679884,0.17456851569637152,0.09474408582424491,0.2699190454187727,0.09613400504662654,0.08314478893114388,0.10273281103602379,0.04854057225759617,0.06990312903129116,0.17081501509837602,0.08849695821846255
-0.002141208767806241,0.022667941208477916,0.4968456526976516,0.07368114677811245,0.06487218455685705,0.28710434315115313,0.17673285065641467,0.0960234865737755,0.27492588660344763,0.09718064450315457,0.08285246170883764,0.10164609610923742,0.04839722566765484,0.06934523217446462,0.1697484022219696,0.08797542314644431
-0.002068250515731931,0.023264298449569953,0.49668058165415685,0.07018397093906578,0.06498686072480722,0.2926821377347393,0.17884576883816372,0.09730330801045373,0.27989397111714703,0.09826842650186313,0.0825500693995116,0.1005598818033911,0.0482543741491843,0.0688051691074401,0.1686345434943227,0.08743621810940796
-0.0019873725406985014,0.02386455794308058,0.4964326063054017,0.06677828070422541,0.06511942742752592,0.29825540135635914,0.18090336323863543,0.09858231691243362,0.2848171905238145,0.099397862047843,0.08223907570225565,0.09947373803794449,0.04811304644431234,0.06828258667732974,0.16747401537079556,0.08687986671738367
-0.0018981348226496735,0.02446829364972552,0.4960970082793463,0.06346396452994721,0.06526910714640351,0.30381678020874525,0.18290148588087732,0.09985915185279601,0.28968961214787337,0.10056936241930438,0.08192090209177649,0.0983874000429144,0.04797428814640529,0.06777715385606481,0.1662676158689803,0.0863069728599247
-0.0018000827093913824,0.02507506486341469,0.4956695657716777,0.06024082240347412,0.06543506004883737,0.3093587437706213,0.1848357338385843,0.10113234254377568,0.2945055664971361,0.10178320265545793,0.08159687613107398,0.09730079027671203,0.047839142169725055,0.06728854760760407,0.1650163048014919,0.08571817006044193
-0.00169274641070317,0.025684429403142733,0.49514649256097487,0.05710857107853123,0.06561641503620594,0.3148737338304008,0.186701519759005,0.10240037508325356,0.2992597161103699,0.1030394960316943,0.08126822335030041,0.09621402408668131,0.04770862550769713,0.0668164282862819,0.1637211227675375,0.08511405977678434
-0.0015756410853886035,0.02629595572149235,0.4945243119497237,0.05406684791354408,0.06581229542981529,0.32035429503957497,0.1884941937830292,0.10366177295372438,0.30394710019595095,0.10433819612993818,0.08093609878483353,0.09512739907991119,0.04758370473198865,0.0663604063383449,0.16238309180107696,0.0844951541423698
-0.0014482675308222451,0.026909233351399782,0.4937996681351905,0.051115213610178636,0.06602183686875727,0.32579317507829886,0.19020917707768994,0.10491517425905833,0.30856314954245995,0.10567912739830625,0.08060162947304787,0.09404136902317511,0.04746527756397131,0.06592000824545852,0.16100310894196465,0.08386185554122133
-0.0013101134432698704,0.02752388117819312,0.49296908028260805,0.04825315413580191,0.06624419576299213,0.3311833834134382,0.19184209131285285,0.1061593979478575,0.3131036666730471,0.10706202956629357,0.08026594553428498,0.09295650385336533,0.04735417030403182,0.06549466122328824,0.15958186868620797,0.08321449066828747
-0.0011606551758400919,0.028139553099784314,0.4920286615372234,0.04548008208962527,0.06647854719294037,0.3365181994493249,0.19338887854175704,0.10739349456456797,0.317564767157266,0.1084866033847541,0.07993019406012286,0.09187343801573059,0.04725115235646513,0.06508370993886184,0.15811986087153132,0.08255337691299278
-0.0009993598835821614,0.028755940716935376,0.49097388972682365,0.04279533774146316,0.06672407179970219,0.34179112352870666,0.19484590543489602,0.10861677773278314,0.32194277942260013,0.10995255302831428,0.07959553659749072,0.0907928098323445,0.04715695837934285,0.06468645382767214,0.15661744881444806,0.08187888994085578
-0.0008256879166522875,0.029372772774135733,0.4897995706942577,0.04019818993674161,0.06697993192822412,0.34699576759271256,0.19621004553443483,0.10982883349750938,0.32623410230476096,0.1114596230830487,0.07926313232238662,0.089715197606292,0.04707230903175398,0.06430218566898495,0.1550749839589668,0.08119152000211528
-0.0006390950835784073,0.02998981115016907,0.4885000424881638,0.0376878370238891,0.06724523846354463,0.3521256861648984,0.197478733278913,0.11102950578078759,0.33043502185813656,0.11300762814118978,0.07893411005701151,0.08864106963835397,0.0469979271603924,0.06393022282157589,0.15349291653687364,0.0804919140404989
-0.0004390339897223865,0.030606843279727642,0.48706951195229,0.0352634079224242,0.06751901736882514,0.35717416787116696,0.19864998411025916,0.11221885747073772,0.33454151301189,0.11459647324491552,0.07860953300878369,0.08757077375690409,0.04693454867773293,0.06356992893091784,0.15187188775439464,0.07978090149346018
-0.00022495400776827596,0.0312236709798209,0.48550239894981684,0.03292396341345938,0.06780019705980153,0.36213406718860425,0.19972237608471927,0.11339710799256034,0.33854911069449745,0.11622616375767603,0.07829036286335919,0.08650457244530108,0.0468829276783227,0.06322072473599377,0.15021279924838968,0.07905950262225184
3.6995070786603265e-06,0.03184009576465607,0.48379363786207386,0.03066849779463596,0.06808763002886781,0.36699779349349443,0.20069499006874703,0.11456454952428809,0.34245294245461017,0.11789680368044614,0.07797743543201452,0.08544270015083713,0.0468438356793765,0.06288208732309565,0.14851685673934412,0.07832891923137655
0.00024748588847001423,0.03245590086632113,0.481938918723535,0.028495941354228248,0.0683801363946777,0.37175748875084347,0.2015673077399207,0.11572144932734375,0.34624791471676053,0.11960858194771352,0.07767145748658903,0.08438541848609234,0.046818055229789414,0.062553537926404,0.14678558619818383,0.07759050866702961
0.0005069693989567411,0.03307083285070103,0.47993485244899536,0.026405164260634488,0.06867654967522806,0.37640530365576186,0.20233906909104835,0.11686796663386734,0.3499289639760051,0.12136174679881916,0.07737301900188967,0.0833330610361558,0.046806368471618454,0.06223461910330101,0.14502082234820068,0.07684574295084741
0.0007827190498259653,0.03368459151838812,0.47777904801471943,0.024394981776641324,0.06897575603089616,0.380933674485165,0.203010093755116,0.11800413229433503,0.3534913050978914,0.12315656888133275,0.07708260520719987,0.0822860663947367,0.04680954152154775,0.061924862763258176,0.1432246708379382,0.07609615573743023
0.0010753080659175517,0.03429683560207072,0.47547009406068463,0.02246415991519756,0.06927672408014061,0.3853355582365566,0.20358009601492255,0.11912990964762273,0.3569306517313398,0.12499329425997395,0.07680059830979506,0.08124499859101293,0.046828305734912895,0.061623752979688314,0.14139944683733616,0.07534328042166888
0.0013853130885098863,0.03490720102180812,0.473007442903285,0.020611420816361175,0.06957852284591313,0.38960460711258893,0.20404857868916348,0.1202453002107917,0.3602433967077399,0.12687208893882543,0.0765272679808619,0.0802105546202921,0.046863337528380185,0.06133069573993084,0.1395475940260045,0.07458858982710437
0.0017133132230747752,0.03551532301274585,0.4703912009567083,0.018835447694491605,0.06988032602714081,0.3937352661301625,0.20441488214722817,0.1213504506560472,0.3634267418927158,0.1287929789483594,0.07626275907927346,0.07918355934069826,0.046915241507315804,0.061045013700042366,0.13767158887526784,0.07383346260573138
0.0020598890374884096,0.036120857123344306,0.4676218355379505,0.017134889410045952,0.07018140158325302,0.39772278172638303,0.20467835973820558,0.12244574377281281,0.36647876918615074,0.1307558005938436,0.07600709311536193,0.07816494853073487,0.04698454485422503,0.060765970903931106,0.13577383775133617,0.07307919581027358
