EMG01_right_gast_med,EMG02_right_glut_max,EMG03_left_gast_med,EMG04_left_glut_max,EMG05_right_glut_med,EMG06_right_bic_fem,EMG07_right_rect_fem,EMG08_right_vast_lat,EMG09_right_vast_med,EMG10_right_tens_fasc_lat,EMG11_left_glut_med,EMG12_left_bic_fem,EMG13_left_rect_fem,EMG14_left_vast_lat,EMG15_left_vast_med,EMG16_left_tens_fasc_lat
0.011765173389132235,0.09141665520437443,0.010189315617793928,-0.10394627737139495,-0.03503537804075412,-0.03977323221940479,0.04035797312146858,0.0012248203252045171,0.03747090803585744,-0.015782333434405278,0.025220439847893194,-0.07902759922387771,-0.01290521935874396,-0.010948244038177391,0.0015195245360034382,-0.016295857881707475
0.013553941857528473,0.09196443255349354,0.011148195781467403,-0.09289417325453486,-0.02490050171226873,-0.03352570845759597,0.04122223474577081,0.00217447214312095,0.038908077247422644,-0.010987200916899696,0.025682086608145055,-0.07320071864137591,-0.01111356382026801,-0.0069411601379566895,0.002945041185747713,-0.012313893757452874
0.015412064118429766,0.09253000852278813,0.012118078014363834,-0.0819484197234348,-0.01487280607732926,-0.027345175600192274,0.042074297245180206,0.003117211365421987,0.040383505542097325,-0.006231045198929605,0.026142364843451314,-0.06737549761702084,-0.009337615685935252,-0.0029872952023916174,0.004351445008744171,-0.008393230821630997
0.01734028862178595,0.09311361369712401,0.01309845050463306,-0.07112961789066878,-0.004968345284868984,-0.021240992087108845,0.04291307030205309,0.004050707180691607,0.04189694902880982,-0.0015200451150186986,0.026600168661192806,-0.061558683552511206,-0.00758062253303806,0.0009068028654600935,0.005735941168476094,-0.004541014174911363
0.019339426564893812,0.09371542003299892,0.01408881734432467,-0.0604569488075918,0.004797462936830835,-0.015222237977059808,0.043737414478844945,0.004972826225595553,0.04344811599708595,0.003139687361159827,0.027054429072965635,-0.05575650210519202,-0.005845625596539929,0.004734869249200065,0.007095894260202119,-0.0007640489851868663
0.021410372398401645,0.09433560337797334,0.015088718956236919,-0.049947806358567985,0.014410000527027284,-0.00929760466284388,0.044546142665693005,0.005881685425545981,0.045036673247113405,0.007742150673930166,0.027504142625292334,-0.04997453566171873,-0.004135399174385868,0.008490991541132184,0.008428892136877114,0.0029313401678264287
0.02355410784715796,0.094974411096064,0.01609775020451957,-0.03961759056172344,0.023855571754725947,-0.0034752873960607862,0.045338043971607817,0.006775671015524623,0.04666224610550073,0.012281522236324808,0.027948385830593572,-0.04421764179911523,-0.0024524140339757766,0.012169668884674419,0.009732790553219281,0.006539424205967435
0.025771691840292113,0.0956322048544286,0.017115572371197135,-0.02947964532997024,0.033121492019486214,0.002237107217355178,0.046111915400408425,0.0076534290067584885,0.04832441218741181,0.016752235826659485,0.02838631424602342,-0.03848990803948368,-0.0007988242367717247,0.015765860916156463,0.011005734399582221,0.010055144510888249
0.028064239708095053,0.09630947565883048,0.01814191949904308,-0.019545323495731064,0.04219614743348512,0.007832634508814424,0.0468665919446112,0.008513832746752242,0.05002269070050695,0.02114905770826068,0.02881714861393957,-0.03279463943115387,0.0008235249151129477,0.019275025725215625,0.012246157695110334,0.013474149834687518
0.030432895136375503,0.09700683473196417,0.01917659970572372,-0.00982415848801621,0.051069028753451776,0.013305062009183686,0.04760097272723784,0.009355933729982118,0.05175652913733641,0.025467154307557503,0.029240150865888714,-0.027134375029774456,0.0024130707771059905,0.022693145742543625,0.013452765166297563,0.016792798054182465
0.032878798667333814,0.09772498474431587,0.020219492133844663,-0.00032411946623578527,0.059730742279032,0.01864889365867122,0.0483140426018491,0.010178901986559555,0.053525289655236605,0.0297021450055099,0.029654593370984052,-0.02151092897023414,0.003968492619165024,0.026016740421696025,0.014624498747447603,0.020008126579544573
0.035403059292836755,0.09846467609997564,0.021270540127279414,0.008948072919506073,0.06817299890150727,0.023859365982796,0.049004888648584696,0.010981968146030027,0.05532823828284537,0.0338501350302899,0.030059729537002165,-0.01592545205293097,0.005488659848405792,0.029242864668069673,0.015760492373285983,0.023117795530678237
0.038006739240583294,0.09922665305127336,0.02232974116541068,0.017986592602397197,0.0763885815590365,0.028932415499160834,0.049672711073877766,0.011764391382901295,0.057164539069391174,0.03790772500662512,0.030454781309131013,-0.010378509857043694,0.0069725728821856915,0.03236909229142222,0.01686001846108733,0.026120008197008313
0.04069085551195118,0.1000115943258635,0.023397134042098963,0.02678615694138297,0.08437129087804092,0.03386461796362163,0.05031682812507343,0.012525468954907738,0.059033251396693784,0.041871995330539306,0.03083895192857044,-0.004870173409635257,0.008419305454972785,0.03539348425089009,0.017922430093237733,0.02901341370482669
0.04345638898144214,0.10082005720403914,0.024472783696753545,0.03534177373196484,0.0921158683837578,0.03865310138591701,0.050936674740203955,0.013264572303007316,0.06093332656820815,0.04574046526947617,0.031211453310513424,0.0005998812981639142,0.00982796856752641,0.03831454200660391,0.01894711013012473,0.03179699689540323
0.046304290522778346,0.10165244369613932,0.025556764038390908,0.04364869080888791,0.09961789661511075,0.04329543597223513,0.05153179478224972,0.013981184101591347,0.06286360313240864,0.04951102830681523,0.031571533280963404,0.0060322683635459584,0.011197712833473357,0.04113114688055621,0.019933449223964037,0.03446996035838233
0.04923548082559327,0.10250900275040352,0.02664913907458525,0.05170253642886602,0.10687367588166896,0.04778950521822973,0.05210182686172885,0.014674924740774201,0.06482280513005256,0.05318186661300778,0.031918497107576764,0.011427785611783682,0.012527760520425263,0.043842486930473774,0.020880863307593714,0.037031611751736644
0.052250844078636366,0.10338985847843922,0.027749944813728323,0.0594995276317436,0.11388007805650074,0.052133366948645864,0.05264648391851995,0.015345566724311097,0.06680954698739541,0.056751348646746386,0.0322517224883905,0.016787322368497583,0.013817444251776062,0.046447973384424183,0.021788833105669102,0.03948129019029271
0.05535121609643008,0.10429504293684341,0.028859179135033195,0.06703664827156441,0.12063437868081701,0.056325135377032216,0.05316552691221549,0.01599303730334937,0.06882234428483314,0.06021792124020036,0.03257066756267865,0.02211181510869204,0.015066238589230351,0.04894714913978482,0.02265694331762952,0.041818363895575986
0.05853736776840295,0.10522452212127255,0.029976805432939735,0.0743117691854679,0.12713406976678573,0.06036293911883862,0.05365873316113344,0.016617410315810124,0.070859627661357,0.06358002879064177,0.032874871860953135,0.027402267865297952,0.016273781223008724,0.05133959959900817,0.023484913655786498,0.04404228833154766
0.06180998570892969,0.10617821364177267,0.031102766717057403,0.08132370897844303,0.1333766756931876,0.06424497675956563,0.05412586006504019,0.017218888703882027,0.07291975807700597,0.06683610016663119,0.03316395042503215,0.03265980978509496,0.017439883317168167,0.0536248950054582,0.024272621021531906,0.04615268361395455
0.0651696550385868,0.10715599694718146,0.03223700288881992,0.08807223682893872,0.1393596407022465,0.06796962575564372,0.05456660964486978,0.017797779546749343,0.07500104220204075,0.06998460603401722,0.03343758160581294,0.03788575421516523,0.018564529132314794,0.05580259288793598,0.025020112524530982,0.04814940333858167
0.0686168509813773,0.10815771733906862,0.03337946750232362,0.09455802126643308,0.14508035240934636,0.07153555203430263,0.05498060948384388,0.018354463651063913,0.0771017466140598,0.07302414709202712,0.03369548927084395,0.04308164694898241,0.019647865567779452,0.057872292661535145,0.025727609430640605,0.05003258768949742
0.07215194067115081,0.10918318520559216,0.034530142988017744,0.10078253098231155,0.1505362800580523,0.0749418011546421,0.05536742303356585,0.01888936180214774,0.07922010946330627,0.07595353793304885,0.033937420326918974,0.04824930241648416,0.02069018271106056,0.05983370842882515,0.02639550245733764,0.05180269989312247
0.07577518931612708,0.11023217192605764,0.035689053594327405,0.1067478954097359,0.15572515290872554,0.07818786746264836,0.05572658264235199,0.01940290276811061,0.0813543483094628,0.07877187489539998,0.03416311859148131,0.053390826925942034,0.021691886844229506,0.06168673677650438,0.02702433912140179,0.05346054576460882
0.07948676464960783,0.11130440375996531,0.03685627526972828,0.11245673399679512,0.16064513116814516,0.0812737386904443,0.056057629278403166,0.019895504552938835,0.08350266294043455,0.08147858544889448,0.034372299011921445,0.05850862841839518,0.02265346761944215,0.06343151302234538,0.0276148040743708,0.055007276729109766
0.0832867372568052,0.1123995547673853,0.03803194171551376,0.11791196378897051,0.1652949550040593,0.08419991454551613,0.056360150249748074,0.020367577457654835,0.08566323215230992,0.08407345762854523,0.034564632840676006,0.06360541257646145,0.023575461271287484,0.06506845421522311,0.028167693533811884,0.0564443772693596
0.08717507598765056,0.11351723945320903,0.03921624589658021,0.12311660412124459,0.16967406527552958,0.08696739896066384,0.05663381248424141,0.020819542695182467,0.0878342036935617,0.08655664900138903,0.03473975285609071,0.06868416553898118,0.024458414392815674,0.06659828774126794,0.028683885036478157,0.057773638241398056
0.09115163791316107,0.11465700542931571,0.04040943640892495,0.1280736282276934,0.1737826906601192,0.08957766678256415,0.05687838997977873,0.02125185356318275,0.09001367684896766,0.08892867556735766,0.034897274486201724,0.07374812389991608,0.025302859522151177,0.06802206496941678,0.029164303805064185,0.05899711790011025
0.09521615256380556,0.1158183259889593,0.041611808269030146,0.13278592585545848,0.17762189722825802,0.09203260672137738,0.057093784197386616,0.021665012345390526,0.09219967745189318,0.09119038181834989,0.03503682155193671,0.07880073309575322,0.026109313593470324,0.06934115995306364,0.029609887234307786,0.060117092776872015
0.09936820104610762,0.11700059212984626,0.04282368790907876,0.13725638188471437,0.1811935981229642,0.09433444332526858,0.05728003639953567,0.022059581652938927,0.09439012545733425,0.09334289387844581,0.03515805004575066,0.0838455956908266,0.026878296331960053,0.07055725376613269,0.030021553451031895,0.06113600075225212
0.10360719489078533,0.11820310328269534,0.04404541242559787,0.1414880043939807,0.18450052275218431,0.09648564154662119,0.05743733122681173,0.02243619015866086,0.09658280108658186,0.09538755820141599,0.03526066816490359,0.0888864114315993,0.02761035504088066,0.07167230556857988,0.030400187483399857,0.06205637876944101
0.10793236520631762,0.11942505582640062,0.04527730342564351,0.14548404108020255,0.18754614668505903,0.09848879810160911,0.057565991147240814,0.022795532947361093,0.09877532770262389,0.09732586869914596,0.03534445187265716,0.09392691123478374,0.028306086177816027,0.07268851194751703,0.03074665254596579,0.0628807976427358
0.11234276864265547,0.12066552841476343,0.046519639090935774,0.14924806461964707,0.19033458515794302,0.10034652754751408,0.05766646178928639,0.023138366930919994,0.10096518611156116,0.09915938541491426,0.03540925541596887,0.09897078747958306,0.028966151137595403,0.07360825644912745,0.031061816258539116,0.06361180014090738
0.11683730483699914,0.1219234632069485,0.047772635920570836,0.15278402429963056,0.19287045464471445,0.10206136857202754,0.05773928856357566,0.02346550195381903,0.10314975283115721,0.10088964794532414,0.03545501640086827,0.10402162782313731,0.029591285926219357,0.07443405149088303,0.031346577877003824,0.06425185896389972
0.12141473666808834,0.12319764227617552,0.04903645206469267,0.1560962628141852,0.1951587082469865,0.10363575299688492,0.05778508536907981,0.023777788341144492,0.10532634596029081,0.10251809638704422,0.03548175521409484,0.10908287088481115,0.030182304713717235,0.07516847501563381,0.03160189156020486,0.06480337232605192
0.1260737091895407,0.12448665982969667,0.05031121048087586,0.1591894986429653,0.19720445165150954,0.10507205157872437,0.057804496545034195,0.024076101718825956,0.10749227071868563,0.10404603154410408,0.035489568778381324,0.11415779959925434,0.030740097526326463,0.0758141043165726,0.031828785132706656,0.06526869368514508
0.13081276536828007,0.12578889750049382,0.05159702986980629,0.1620687758757926,0.19901275259150886,0.10637265951675542,0.05779815354902444,0.024361325968200495,0.10964486207925167,0.10547463501722557,0.03547861883405987,0.11924956411722455,0.03126562256911024,0.07637345461358905,0.032028373971496875,0.06565017388487975
0.13563035671287157,0.12710251795169422,0.05289405455974939,0.16473938466451102,0.20058848594676926,0.10754007995318364,0.05776663319879161,0.024634335169105556,0.11178152214966187,0.10680502788014176,0.0354491151452999,0.12436121192007256,0.031759893852455826,0.07684894189449747,0.032201869813051336,0.06595019937863138
0.1405248469344866,0.12842548511667407,0.05420248007342716,0.1672067566429882,0.20193628454018264,0.10857699089603019,0.05771043545175621,0.02489597695245084,0.11389974997593073,0.10803833433730438,0.0354012942280881,0.12949571142124897,0.03222396492696986,0.07724288662739791,0.03235058444185008,0.06617122214363844
0.14549450694939248,0.12975560234306516,0.05552257267623426,0.16947634062201902,0.20306061825342336,0.10948629334038802,0.05762999465862487,0.02514706303288823,0.11599716156558636,0.10917573677060469,0.03533539438078945,0.1346559657386478,0.03265890961157841,0.07755754943296293,0.03247592837885055,0.06631578091751172
0.15053749981048983,0.13109055599871947,0.056854681408798624,0.17155347310225919,0.20396593967483787,0.1102711392802883,0.057525715244549615,0.025388371119677542,0.11807149816720437,0.11021852034879025,0.03525162975830357,0.13984481616867717,0.033065800632537765,0.07779517525543295,0.032579404835190846,0.06638651373979518
0.15565185454468472,0.13242795938225316,0.05819924141328254,0.17344328445320864,0.20465682758469356,0.11093493925231512,0.05739801266596343,0.02562065479196486,0.12012062119730749,0.11116810642409707,0.035150171920435846,0.14506503536209225,0.03344568731842148,0.07795803209458596,0.03266259932931147,0.06638616211030313
0.16083542836394724,0.13376539518041466,0.0595567677603919,0.17515068940087886,0.20513810487190498,0.11148134998776263,0.05724734972454883,0.025844654698199236,0.12214249266982037,0.11202607433135373,0.03503114926470722,0.1503193106467615,0.033799576285923415,0.07804844119962373,0.03272716548168088,0.06631756737180758
0.16608585876421453,0.13510045465906684,0.060927839454964126,0.1766804621222376,0.20541492785668,0.11191424362740954,0.057074265850222454,0.02606110772863398,0.12413514054615185,0.11279417156407971,0.03489466479721158,0.1556102183459678,0.0341284232419874,0.07806879839480502,0.032774807597515554,0.06618366017733635
0.17140051762728503,0.1364307718128194,0.06231307381837209,0.1780373461109396,0.20549284531222453,0.11223766073031276,0.056879398368882186,0.026270753538689323,0.12609660906804504,0.11347431262286412,0.034740822018796094,0.16094019029030915,0.034433139896383164,0.0780215865567826,0.03280726072173325,0.06598744410353398
0.17677649331732545,0.13775405082188058,0.06371309198697389,0.17922615586401777,0.20537782678136093,0.11245574994959608,0.0566634951694762,0.026474338339457643,0.12802489483670018,0.11406856710910279,0.03456974995977465,0.16631147400968813,0.034714609511500925,0.07790937957778837,0.032826268899730664,0.06573197461486406
0.18221061601331837,0.13906808536060067,0.06512847750720012,0.1802518559219062,0.20507626101356705,0.11257269772604386,0.05642741860323434,0.026672615978685837,0.1299178753455295,0.11457913787009887,0.034381624320377606,0.17172608831663763,0.03497370276085606,0.07773483841689101,0.03283356240088835,0.06542033466499574
0.18769951216723682,0.14037076855476635,0.0665597376264968,0.1811196135198349,0.20459492645628993,0.11259265164561198,0.05617214086185689,0.026866346432891,0.1317732547755988,0.11500833018998659,0.03417668387966313,0.17718577790648454,0.03521129098697769,0.07750070005717562,0.03283083659475979,0.06505560824052821
0.1932396664932067,0.1416600926771699,0.0680072878201001,0.1818348224371375,0.20394093668400687,0.1125196470054299,0.055898731468059466,0.02705629191692187,0.1335885612828921,0.1153585131669106,0.033955241542395084,0.1826919766087385,0.03542825656116788,0.07720976034689024,0.03281973958737727,0.06464085311016116
0.19882748183965987,0.14293413798728632,0.06947147097072763,0.1824030970973837,0.20312166441287338,0.11235756031320233,0.05560833785021901,0.027243210889794076,0.13536120242113384,0.11563207452367984,0.03371768963244363,0.1882457913497683,0.035625500145329184,0.07686485180776806,0.03280187460315071,0.06417907394423467
0.2044593330874417,0.14419105044731415,0.0709525975410413,0.18283023750643906,0.20214464831212828,0.11211011148509978,0.05530216024573094,0.027427850293945413,0.13708855072607984,0.11583137017122071,0.03346449930105875,0.19384800721854134,0.03580394474817302,0.07646881754745949,0.03277881381367777,0.06367319682283862
0.21013161113045856,0.14542900837271905,0.07245098722948135,0.18312216713767684,0.2010174871804666,0.11178090623568572,0.05498142237254215,0.02761093640852365,0.1387680318476373,0.11595866988669015,0.03319621418569399,0.19949910035372492,0.03596453655492971,0.07602448242116185,0.03275211524713817,0.06312604767229602
0.21584075310954812,0.14664617839358277,0.07396700407177223,0.183284847298253,0.19974772621031672,0.11137348976641895,0.05464733941758006,0.027793164725618928,0.14039720449247642,0.11601610360832607,0.03291343871581659,0.20519924642944987,0.03610824259199299,0.07553462255744751,0.03272333794489301,0.0625403405317052
0.22158325539496615,0.14784066140955668,0.07550108279320568,0.18332417275225082,0.19834274007811115,0.1108913927197594,0.054301084912116354,0.027975190099037612,0.14197382793153754,0.11600562307258318,0.03261682170224046,0.21094832029128777,0.036236045366688105,0.0750019343032683,0.03269405431338421,0.061918679514972895
0.2273556663483382,0.14901042951446192,0.07705374464939493,0.1832458624580329,0.19680963068742008,0.11033816465939508,0.05394376129633369,0.02815762045357975,0.14349591315734536,0.11592899799771185,0.03230703605278098,0.21674588539882395,0.03634893469822588,0.07442900583035482,0.03266585953622188,0.061263569877824615
0.2331545566305024,0.15015326185004826,0.07862560153815759,0.183055383111059,0.1951551818546941,0.10971739466072727,0.05357638529036143,0.02834101714357489,0.14496175433335218,0.11578784833198903,0.0319847556181111,0.2225911720988406,0.03644789702890399,0.07381830008675856,0.032640378034499734,0.06057743032905399
0.2389764657354121,0.15126670468314585,0.08021734778902485,0.18275794769676004,0.19338589448787294,0.10903271926677487,0.053199894842809306,0.028525900912296863,0.14636993794765615,0.11558369369539215,0.031650631694200036,0.2284830443295106,0.03653390257385336,0.07317215699687696,0.03261926707724164,0.0598626029089382
0.24481782448917366,0.15234808192156096,0.08182973970023279,0.18235858622343848,0.19150806823419078,0.1082878186681722,0.052815169366876275,0.028712759608641926,0.14771932803825952,0.11531800314766553,0.0313052762367633,0.2344199618473135,0.03660789073132008,0.0724928113526299,0.03260421774262119,0.059121360202318736
0.2506748544141786,0.15339455189398304,0.08346356355389874,0.18186224350997515,0.18952788348807809,0.10748640247088818,0.052423050667099194,0.02890205511229592,0.1490090269546482,0.11499223994094486,0.030949260386453816,0.24039995996713107,0.036670754996511165,0.07178241543260572,0.03259695350926501,0.05835591034982867
0.2565434586286893,0.15440318396038444,0.08511959345715416,0.18127386726510397,0.18745146771985285,0.10663218679872156,0.05202435947842298,0.029094228779607236,0.15023831230666432,0.1146079001594488,0.030583128431777795,0.24642066484240868,0.036723331504326315,0.07104305935176708,0.03259922681181863,0.057568400380274595
0.26241915168500607,0.15537103645156633,0.08679854128623236,0.18059847458562517,0.18528494512566615,0.10572886472601559,0.051619907222028874,0.029289705258184983,0.1514065519626283,0.11416654425232949,0.030207418161886882,0.25247933643890197,0.03676639708881519,0.07027678744165407,0.03261281392380376,0.05676091840050221
0.268297077379276,0.1562952300880898,0.08850100912927274,0.17984119419721045,0.18303446930174647,0.10478007214601998,0.05121050320880569,0.029488894589074954,0.15251310012496347,0.11366982059519798,0.029822679764021663,0.2585729210316395,0.036800677975330875,0.06948561040209726,0.032639508533166654,0.05593549514929917
0.2741721077557164,0.1571730142852527,0.09022746805853941,0.17900728326061152,0.18070623931184768,0.10378935115845572,0.05079695775077303,0.02969219258636322,0.15355718913253222,0.11311948037534343,0.029429490821818623,0.26469810400425897,0.03682686372455831,0.06867151307318467,0.03268111435323007,0.055094105354838406
0.2800389761080317,0.15800182374985278,0.09197827755796179,0.17810211908384652,0.17830650012419028,0.1027601129213332,0.05038008181943135,0.029899979552034245,0.15453785963243943,0.11251738328812944,0.029028467047410966,0.2708513586037809,0.03684562110363377,0.06783645778828483,0.032739437067298184,0.054238669238838605
0.28589241026830403,0.15877932286293456,0.09375373004820782,0.17713116751703556,0.1758415289245095,0.10169560502506284,0.04996068400926365,0.030112617445743464,0.155453972846262,0.11186549375822401,0.028620268603915974,0.2770289858837474,0.03685760605130536,0.06698238338629985,0.03281627584394418,0.05337105439460206
0.2917272538538166,0.15950343553423385,0.09555409743006184,0.17609993106978308,0.17331760924943804,0.1005988949605977,0.049539565619689925,0.030330445681978044,0.1563042971696087,0.11116586765714946,0.02820560209085963,0.28322714090446305,0.03686347332511965,0.06611120008378801,0.03291341458850626,0.05249307814068679
0.2975385686340237,0.16017235851875541,0.0973796704665019,0.17501388080626892,0.17074099521767883,0.09947287720512744,0.04911751465945599,0.030553775768421547,0.15708762214129535,0.11042062977283615,0.0277852184618097,0.2894418404083882,0.03686388350455301,0.06522478053336807,0.03303261302199459,0.051606510327209275
0.30332171163838334,0.1607845566087133,0.09923078902500664,0.17387837678686985,0.16811786835797152,0.09832029576175776,0.04869529950782211,0.030782885027346194,0.15780286562853224,0.10963194258878807,0.027359907311511486,0.29566894769222135,0.03685950712302076,0.06432494752049527,0.03317559760934056,0.05071307645682907
0.3090723814301069,0.16133873865302978,0.10110786164660285,0.17269858498609178,0.16545428963923542,0.09714376860275052,0.048273662844773614,0.03101800965542509,0.1584491629876929,0.10880196723835303,0.02693048810229522,0.3019041312720282,0.03685102580937543,0.06341345887148891,0.03334405230231752,0.04981446088538701
0.3147866290979815,0.1618338140019799,0.10301137340505648,0.1714794113473004,0.16275614930011695,0.09594580805161566,0.047853316298911576,0.03125933742727205,0.15902593398302942,0.1079328177991103,0.02649779899244102,0.3081427951726156,0.03683913043098626,0.06249199025563537,0.033539609542907266,0.04891230979442321
0.3204608309258884,0.16226882970815337,0.10494188154199618,0.17022548331489848,0.16002911695778946,0.09472883656956722,0.047434936070765356,0.03150700123630389,0.15953292431962965,0.10702651036755213,0.026062683981312233,0.3143799802246289,0.03682451634084354,0.061562118476954364,0.03376384376183558,0.04800823358380294
0.32609162132714326,0.16264288960995105,0.10689999888667136,0.16894118547938256,0.15727859844098926,0.09349519827920458,0.04701915958706088,0.03176107614242408,0.15997021987575102,0.10608491499732337,0.025625979098636897,0.3206102571982934,0.036807875935719325,0.060625312198613154,0.03401827068496401,0.04710380831971958
0.3316757864026416,0.16295505724580428,0.10888636557011941,0.16763071963401258,0.15450971410426015,0.0922471666759307,0.04660658304477304,0.032021581397921495,0.16033823303254333,0.10510973224522203,0.025188498341582207,0.32682767610320873,0.03678988882706974,0.05968293626888176,0.034304353095461974,0.04620057589174425
0.33721012031077885,0.1632042537235011,0.11090161000388471,0.16629815871560538,0.15172730830679151,0.0909869490308272,0.04619775952909574,0.032288485490040625,0.16063766182246145,0.10410251057561462,0.024751021329536785,0.3330258234290624,0.036771210007400086,0.05873626699550011,0.03462351020791969,0.04530004258084746
0.34269124842910503,0.16338918696418805,0.11294630049832993,0.164947484787969,0.14893597924385016,0.089716687984587,0.04579319725202532,0.03256171155511158,0.160869423880966,0.10306469280144889,0.024314287197958705,0.33919796067543984,0.036752456459142435,0.05778651038724268,0.034977127915984764,0.04440367581522243
0.3481154392057927,0.16350835617931972,0.11502089047977673,0.16358261045408412,0.1461401105712994,0.08843846078182727,0.045393357370737505,0.03284114229054854,0.1610345683262331,0.10199766867953079,0.023878997549069633,0.34533718658039253,0.036734193762572635,0.056834818330933436,0.03536656897928268,0.04351289898762049
0.3534784735955233,0.16356013263755,0.11712566969210013,0.1622073840660541,0.14334389604999798,0.08715427651269014,0.04499865081604359,0.03312662436343896,0.16113416965496777,0.10090282261851313,0.02344582509308591,0.3514365946729363,0.036716927201442505,0.055882301255704835,0.035793182834377074,0.04262908432093919
0.3587756511967889,0.16354287500871673,0.11926074590234474,0.16082557997473315,0.14055135620601156,0.08586607162970734,0.04460943359484573,0.03341797234465427,0.16116921177193202,0.09978157400536072,0.02301542265239331,0.35748941535555945,0.036701102260445505,0.05493003679033656,0.03625831462942101,0.04175354389134068
0.3640019315027706,0.16345504376440406,0.12142606935041265,0.15944087578036353,0.13776634758708659,0.08457570390813669,0.04422600012547724,0.03371497221549588,0.16114049014785686,0.09863540890188797,0.02258843024314451,0.3634891322678911,0.036687113926711104,0.05397907410520214,0.036763313017787465,0.04088752059847018
0.36915213447729456,0.1632953021470476,0.12362148284126709,0.1580568190833262,0.13499256554013161,0.08328494493161283,0.04384857502850503,0.03401738449782655,0.1610485815829156,0.09746590222352117,0.02216548001273683,0.36942956331719284,0.03667531950353095,0.05303043383794585,0.03730953621178353,0.040032184412118775
0.37422113885590097,0.16306259926658292,0.12584677478105225,0.1566767865776873,0.13223354170357088,0.0819954711237395,0.04347730675705857,0.03432494704759961,0.16089390120087835,0.09627472991113178,0.021747199138300217,0.37530489805707906,0.0366660509009235,0.052085103721358335,0.03789835580065775,0.03918863834805724
0.37920405695830145,0.16275623153737998,0.1281017264022865,0.15530393848175414,0.12949263759083532,0.08070885331850805,0.043112268812990004,0.03463737752622141,0.16067680696614248,0.09506367102209075,0.02133421088415595,0.38110968500662323,0.03665962519813956,0.05114403025156691,0.038531157881496865,0.03835793195961832
0.3840963783455657,0.16237587953863897,0.13038615109782206,0.15394117681521033,0.12677303573068147,0.07942654487209819,0.0427534707528712,0.03495437552622101,0.16039770424771718,0.09383460007618208,0.02092713409197538,0.38683876493368724,0.03665635319999711,0.05020810694255774,0.03920934113763239,0.03754107697764813
0.38889407596989484,0.16192161842921227,0.13269992399683037,0.1525911264513487,0.12407772982589484,0.07814986870059465,0.042400875266492666,0.03527562428059492,0.1600571330718822,0.09258947037400193,0.02052658143336687,0.3924871489424152,0.03665654578973139,0.049278160050123934,0.039934311623370286,0.03673906216871726
0.3935936700629572,0.1613939012205179,0.1350430001925464,0.15125615010867616,0.12140951529923445,0.07688000643466708,0.042054416862358855,0.035600791833485586,0.15965583476624837,0.09133028934055963,0.020133156789022798,0.39804984323590575,0.03666051796257676,0.048354935354169785,0.040707474169115916,0.03595286649506325
0.39819224680008947,0.16079351544635376,0.13741542037052792,0.14993838336728665,0.11877098142427983,0.07561799679885456,0.041714020158405966,0.03592953149897449,0.15919479565007164,0.09005908721919757,0.019747452130299367,0.40352162548159665,0.036668590502091716,0.04743909387974162,0.04153022049709582,0.03518346998111519
0.40268743066161194,0.16012151499750002,0.13981730298563655,0.14863976929919634,0.11616450600341355,0.0743647470751332,0.04137961678657115,0.036261481390620603,0.15867526644968633,0.08877788063942202,0.01937004426792492,0.4088968144721061,0.03668108933141518,0.046531221016764115,0.04240391432250948,0.0344318617740023
0.4070773112856754,0.15937913004222612,0.14224882259044988,0.14736208469470388,0.11359225327279272,0.0731210528370259,0.041051159907411545,0.03659626277281173,0.1580987571701105,0.08748863270061287,0.01900149179931673,0.41416915032606433,0.0366983426312263,0.045631843529945294,0.0433298738947306,0.0336990450043998
0.4113603273709632,0.1585676589651051,0.14471017441747872,0.14610695685674596,0.11105617540382694,0.07188761930850789,0.04072863539218143,0.03693347697131432,0.1574670081909937,0.08619321186125048,0.018642332532806446,0.4193318798729658,0.03672067586333224,0.0447414465996467,0.044309354737824796,0.032986038204622516
0.4155351117559183,0.15768834706818344,0.14720152584728158,0.14487587062834362,0.10855801765187577,0.07066508175108456,0.04041206886219557,0.037272700588813545,0.1567819393360652,0.08489335761936483,0.01829308159701952,0.424377996834155,0.0367484048730488,0.04386048776146767,0.045343539972087496,0.03229387321553793
0.41960030310600993,0.15674227356829984,0.1497229559341353,0.14367016571984773,0.10609932689449361,0.06945402420602229,0.040101527970941714,0.037613478804406984,0.1560455795529531,0.08359066878168823,0.017954230360874637,0.42930052236617866,0.03678182726582318,0.04298940706116156,0.04643354376319766,0.03162358970262908
0.42355433063678183,0.15573030045623718,0.15227438631721885,0.1424910247652948,0.1036814630209845,0.06825499592104307,0.03979711956043002,0.03795531659477336,0.1552599806014855,0.08228662138325277,0.017626246199420093,0.4340927660577219,0.03682121226615297,0.0421286329520003,0.04758042402596965,0.030976226592279745
0.4273951892485493,0.15465311744423527,0.15485551935760236,0.1413394528593471,0.10130561239748667,0.06706852483714926,0.03949898160309438,0.03829766792147246,0.15442711875471937,0.08098260301341843,0.017309573049052108,0.43874854916961553,0.036866789273100026,0.04127858370208028,0.04878519674161571,0.030352810918672878
0.43112026383775004,0.1535113471233525,0.15746581558388364,0.1402162496094259,0.09897280244977917,0.06589512760043163,0.03920727013530908,0.038639925191796584,0.15354880018926628,0.07967994724625795,0.017004632609040473,0.4432623780746033,0.03691873595135978,0.04043966433582491,0.050048848093430284,0.029754344726091463
0.43472629112812744,0.15230565515495945,0.16010452693002902,0.1391219798125609,0.09668391628898003,0.06473531569072946,0.03892214167857737,0.03898141529182632,0.15262661028988686,0.07837996266207818,0.01671182597126263,0.4476295579384716,0.03697716912497766,0.03961225939259524,0.05137234340744121,0.02918179200547336
0.4382094812875421,0.15103684364744252,0.16277076398546925,0.13805695968741954,0.09443970625960338,0.06358959741570826,0.03864373191061781,0.039321406661884856,0.15166193819528215,0.0770839560790968,0.016431535402666102,0.45184623926005874,0.03704214350522702,0.03879672203120247,0.052756632312127516,0.02863607071854816
0.4415657235640582,0.14970592420566164,0.1654635678012586,0.1370212727562091,0.09224080531793592,0.06245847569478331,0.0383721340252172,0.03965912430796868,0.15065605646172772,0.07579324986702184,0.016164125970261536,0.4559093928312055,0.03711365963712859,0.037993360351776764,0.054202649705333845,0.028118054635784796
0.44479079766875546,0.14831416856750115,0.16818197467217796,0.13601480882869382,0.09008773525045206,0.06134244174027117,0.03810738612394538,0.03999376729208726,0.149610212367066,0.07450919344463926,0.01590994669002803,0.45981671185562,0.037191676995667874,0.037202424444105354,0.05571131231199262,0.02762858335925012
0.44788056447377517,0.14686313583260535,0.1709250709503778,0.13503730982814607,0.08798091091201009,0.06024196492078026,0.037849476013395666,0.04032452638436406,0.14852570785287095,0.07323316926240211,0.015669330900810727,0.4635664432401692,0.03727612797281518,0.03642410192464088,0.057283510822079955,0.027168474501844706
0.4508311310601273,0.14535467637129337,0.17369203526787486,0.13408841365082522,0.08592063989287775,0.059157479252634426,0.03759836017485281,0.04065060116836682,0.14740396253138963,0.07196659373177702,0.01544259561165839,0.4671571533049017,0.03736693126626768,0.03565852642795404,0.058920097803449964,0.026738533931312824
0.453638985858588,0.14379091352066,0.17648216597953276,0.13316769330699138,0.08390711729953594,0.0580893670992236,0.0373539867190064,0.04097121584250958,0.14624655763370187,0.07071091368165061,0.015230039643197413,0.470587436212543,0.03746400427161003,0.03490579367018745,0.060621871778514504,0.026339562951341954
0.4563011003359127,0.1421742050816284,0.17929489216537414,0.13227468946951496,0.08194041564065076,0.05703794075810157,0.03711631590347828,0.041285632948825916,0.1450552596777675,0.06946759899695532,0.01503194053719617,0.47385558999705757,0.03756727403960209,0.034165977281754654,0.06238955802787978,0.025972362244737417
0.4588149943853632,0.14050708738682016,0.18212976712806742,0.13140893471077608,0.08002047200112118,0.056003424896395954,0.03688533628136517,0.0415931642890937,0.14383202357738756,0.06823813212690369,0.014848551254079913,0.4769593502369444,0.037676686329892,0.03343914121351669,0.06422378846904621,0.025637732617006696
0.4611787632956147,0.13879220528736166,0.18498644396326525,0.13056996794475875,0.07814708038444523,0.054985947759746565,0.036661075729783,0.04189317835783114,0.14257897584899767,0.06702399514325148,0.014680099436074278,0.4798958278520188,0.03779221227844654,0.032725347940881507,0.06612508732081247,0.025336472782302933
0.46339106491410936,0.13703223179197377,0.1878646334418801,0.12975733790946034,0.07631989886627129,0.05398554766010655,0.03644360687377644,0.0421851037301088,0.14129837945550347,0.06582665498838335,0.01452679122939248,0.4826617004083596,0.0379138522050826,0.032024661922663906,0.06809386949872542,0.0250693746117973
0.4654510664111938,0.13522978128061952,0.19076404509989178,0.12897059491964732,0.07453847234000782,0.053002191171669905,0.036233046712764005,0.04246842798506931,0.13999258261013794,0.06464754748595937,0.014388818360540246,0.48525354021555644,0.03804163612545242,0.03133714804435052,0.07013045064257785,0.024837216403987235
0.46735835090865074,0.13338732692851038,0.19368431305998796,0.12820927058012363,0.07280226279228873,0.05203579451289033,0.03602955055778169,0.04274269191699159,0.13866395450888797,0.06348806060178838,0.014266366058667983,0.4876681466877277,0.0381756206028429,0.03066286507485343,0.07223506140989809,0.024640754827670253
0.46911278517217386,0.13150714961037419,0.19662490868931412,0.12747284565762423,0.07111068002319974,0.05108624348393399,0.035833300681619724,0.04300747897617049,0.13731481143576554,0.06234951734863569,0.014159620689707138,0.48990283295681536,0.03831588168119258,0.03000185447581789,0.07440786060252394,0.024480716226135946
0.470714350582494,0.1295913439860821,0.19958505170279264,0.12676070684264343,0.06946311000108374,0.05015341090887656,0.03564449035458596,0.04326240008179275,0.13594733980941856,0.061233158635105395,0.014068776657866662,0.4919556535742259,0.03846250378116629,0.029354126625341835,0.07664894532188388,0.024357788636185162
0.47216294068043424,0.12764187267863608,0.2025636539804726,0.12607209602618932,0.06785893951186514,0.049237171250354136,0.03546330417167824,0.04350707414766709,0.13456353560604134,0.06014012761991341,0.01399404215184138,0.49382556274921374,0.038615564612328526,0.028719651069641406,0.07895835746040067,0.024272617198045417
0.47345812969789886,0.12566063524300533,0.20555932979399477,0.1254060677197337,0.06629757591044139,0.04833741215913064,0.035289896730669984,0.0437411048485173,0.13316518981738723,0.05907146065834406,0.013935643365327757,0.4955124957653384,0.038775116349749665,0.028098358994843038,0.08133608597400718,0.024225804662664233
0.4745989385574373,0.12364952964835416,0.2085704644717812,0.12476148194604103,0.06477846099762788,0.04745404280591961,0.03512437577082793,0.04396405568444673,0.13175392745403486,0.058028090263667786,0.01389382689971076,0.4970173698351152,0.03894116599843143,0.027490158673020675,0.08378206453855588,0.02421791510987877
0.47558368244862426,0.12161050064782636,0.21159530501244272,0.12413704387035879,0.06330107831688075,0.046586998916071785,0.03496679864060636,0.04417543068320596,0.13033127271339437,0.05701085895705544,0.01386886015465391,0.4983420045066365,0.03911366396938519,0.0268949566395582,0.08629616436413022,0.024249477583098422
0.4764099924751027,0.11954557437940605,0.21463204798992389,0.12353137083118947,0.06186495347405948,0.045736244490076516,0.0348171840515926,0.0443746715661966,0.12889871160201274,0.05602053771573221,0.013861029621966949,0.4994889656074712,0.03929250948441069,0.026312677938526745,0.0888781821188663,0.02432098805429775
0.47707500229997646,0.1174568791190765,0.21767891707287557,0.12294306312683825,0.060469647412702304,0.044901770246930255,0.034675530975088825,0.04456117401399491,0.12745774252000938,0.055057844583631416,0.013870637111187287,0.5004613403708986,0.039477570447449255,0.025743282737920977,0.09152782309074642,0.024432909594399595
0.477575605314596,0.11534665263411703,0.22073422694171504,0.12237076922851521,0.059114742908290885,0.044083588877259945,0.03454183627755196,0.04473431399574918,0.12600991375873935,0.054123462299896036,0.013897994043848368,0.5012624546123671,0.03966870849346952,0.025186778147970292,0.09424467988494074,0.024585670990471115
0.4779087103938294,0.11321723704373447,0.22379643079067957,0.12181324257445979,0.057799824860150874,0.043281727242988385,0.03441610810540315,0.04489347488169982,0.12455684754414131,0.05321805470533835,0.013943414050526648,0.5018955454094417,0.03986580312205421,0.02464322433661923,0.09702820725176796,0.024779664155347596
0.478071472988605,0.11107106247512384,0.2268641491135906,0.12126938736018887,0.05652445524304769,0.04249621571430538,0.03429837439774654,0.045038072064451776,0.12310025089388245,0.05234228161845739,0.014007204185069394,0.5023634265185449,0.04006877277733382,0.02411273436819065,0.09987769742689719,0.025015240744315794
0.47806149320903557,0.10891062109906295,0.22993617807391242,0.12073829112318,0.05528814462917726,0.041727074895698,0.034188686170356836,0.04516757428752298,0.12164191411321382,0.05149681181026286,0.014089656252733304,0.5026682509907667,0.04027759166135825,0.023595467574004658,0.10279226718888022,0.025292708436082306
0.4778769733666791,0.10673843333826663,0.23301147643063747,0.12021924241097054,0.05409032781546601,0.040974300061921376,0.03408711549433363,0.04528152100653848,0.12018369820728823,0.050682333661343046,0.014191042196814673,0.5028114940669632,0.04049230120666081,0.02309161667199312,0.10577086424351868,0.025612327567207157
0.4775168285920436,0.10455700816584843,0.23608913070697168,0.11971173239966544,0.05293035785903027,0.04023784370111065,0.03399374837280595,0.04537953525429817,0.11872751282085302,0.049899563064966776,0.014311616622791292,0.5027941545655181,0.04071301534847788,0.022601389257726357,0.10881228679460998,0.025974309039486956
0.47698074559129583,0.10236879945542633,0.23916829902230885,0.11921543997102471,0.05180752509045856,0.03951759935648538,0.033908672983943275,0.045461331638130674,0.11727528652365925,0.04914924815438013,0.014451624565087032,0.5026170463772698,0.040939919020361565,0.022124986938664652,0.11191520619773165,0.026378813630358627
0.47626918630781084,0.10017616031613656,0.24224813473308218,0.11873020043338248,0.05072109051919599,0.038813395412418156,0.03383196399427525,0.04552671925909932,0.11582893134470139,0.04843217048595157,0.014611310438443758,0.5022810723553864,0.04117325963546984,0.021662591744633697,0.1150781886680931,0.026825951532196204
0.4753833351512062,0.09798130180464559,0.24532769172003224,0.11825595875531145,0.049670320177115986,0.03812500457209249,0.033763664644168995,0.045575599501026756,0.11439030343190162,0.0477491424040874,0.014790926092758942,0.5017874473407008,0.04141333169098947,0.021214370187924027,0.11829971515566905,0.02731578128923349
0.4743249904803771,0.0957862720520236,0.24840581379675722,0.11779270884098807,0.04865451533707653,0.037452163481808166,0.033703772000069625,0.04560795878769156,0.11296116159438675,0.04710100044672137,0.014990737454383505,0.5011378646085247,0.04166045502197221,0.020780494058010707,0.12157819851999768,0.02784830901443499
0.47309640310116796,0.09359296779691112,0.2514810232246375,0.11734042098284066,0.04767303753996508,0.03679459381689548,0.03365223375118945,0.04562385654554579,0.11154312529523144,0.04648859481560624,0.015211029500560639,0.5003346028322896,0.04191494760760938,0.02036116759633684,0.1249119971660576,0.028423489156066777
0.4717000665815467,0.09140316904134088,0.25455145266644286,0.11689896612574414,0.04672532757951128,0.036152021394584864,0.03360895911273975,0.0456234087349104,0.11013763789145703,0.04591277512385005,0.015452109380549243,0.49938057325038504,0.042177096370942316,0.01995665298531579,0.12829942433863506,0.029041226763297366
0.4701384661129586,0.08921857825117963,0.2576148629172325,0.11646806351370717,0.04581091783782483,0.03552419260517935,0.033573836912596765,0.045606767423591044,0.1087459496727633,0.04537437283136728,0.015714307567821467,0.4982793089653043,0.042447136216241715,0.019567291305893797,0.1317387523143949,0.029701380362899887
0.46841379437178055,0.08704085461886386,0.260668734548891,0.11604728319708982,0.04492943762549403,0.03491088752447359,0.03354675318677985,0.045574096972669925,0.10736913022429763,0.044874180972395324,0.015997977000014412,0.4970349001255168,0.0427252494633328,0.01919351789541119,0.1352282107795405,0.030403764761676527
0.46652768201721445,0.08487164159727995,0.26371038690282084,0.11563610347495015,0.04408061144794222,0.03431192917346855,0.03352760541355984,0.04552554748509732,0.10600810000930527,0.044412934182852234,0.016303490234646622,0.49565188012376327,0.043011585788452496,0.018835871396201746,0.13876597873993365,0.031148153290882816
0.46448106909260894,0.0827125874121157,0.26673709428070186,0.115233992304409,0.04326425038498984,0.03372718852977942,0.033516312681798735,0.04546122763919777,0.10466366500838767,0.04399129734960949,0.016631234716783867,0.49413506892296055,0.043306290562394566,0.01849499617927054,0.14235016938540215,0.031934279010609815
0.4622743077765984,0.08056535850175775,0.26974619008710404,0.11484048667226153,0.04248023702434926,0.033156585063277434,0.03351282130184724,0.045381184294584875,0.10333654776497081,0.0436098702234893,0.016981606317863673,0.4924893802601233,0.04360953117458266,0.01817163822604441,0.1459788074278135,0.03276183441746428
0.45990742408859603,0.07843164605812986,0.2727351546388016,0.11445526120757257,0.041728504624225386,0.03260008275835913,0.03351710559859414,0.04528539954818569,0.10202741411678548,0.043269204802623695,0.017355001360959688,0.4907195998655513,0.04392151770549483,0.01786663492519041,0.14964979856113517,0.0336304692594739
0.4573804087388251,0.07631316604362864,0.2757016826345036,0.11407818343002701,0.041009011388440625,0.032057681786558864,0.03352916386385543,0.04517380736810109,0.10073689545187278,0.04296982617519413,0.017751807395402174,0.4888301420562558,0.04424251686399886,0.01758089956480339,0.15336089085840465,0.03453978615580422
0.4546934782713633,0.074211653234392,0.278643726699479,0.11370935358514987,0.04032171091338544,0.03152940619448351,0.03354900967732498,0.0450463202158001,0.09946560634290107,0.042712251098621604,0.018172393538119867,0.4868248142760291,0.04457285849136497,0.017315401552444723,0.15710962813091092,0.03548933406050509
0.4518472934500982,0.07212884998549328,0.2815595139920939,0.11334912766280941,0.039666523048475955,0.03101528816137706,0.03357665902079841,0.04490285616518324,0.09821415741097962,0.04249700269324361,0.018617103026722644,0.4847066741215863,0.04491293435687405,0.017071143563461087,0.16089330307593244,0.03647860143259748
0.44884312696453543,0.07006649052738745,0.2844475335892605,0.11299812289892792,0.0390433168127907,0.030515349546610424,0.0336121137997336,0.04474336330581994,0.0969831632651835,0.04232462068663071,0.019086251603660138,0.48247806076841376,0.04526318940260439,0.01684913788226417,0.16470893412253892,0.037507013586544444
0.4456829745422226,0.06802628168432928,0.28730649325400687,0.11265720578832099,0.03845191610540748,0.03002958318692647,0.03365534364554392,0.04456784072874794,0.09577324537150762,0.04219566688412113,0.019580132299381412,0.4801407766465069,0.04562410600906345,0.016650388133298874,0.1685532844934896,0.03857393724385668
0.442369605826304,0.06600988095495329,0.2901352452204954,0.11232746335439346,0.037892124371137426,0.029557940791214595,0.03370627191716323,0.044376355481036765,0.09458502973750685,0.04211072580221226,0.020099023302886498,0.4776963224157008,0.045996182223292166,0.01647588512790508,0.1724229125222668,0.039678690347683475
0.4389065538077906,0.0640188729141831,0.2929326817888499,0.11201015909517172,0.03736375514895064,0.029100334625760255,0.03376477410462422,0.044169054985886816,0.09341913936529095,0.04207040066686317,0.020643195738603192,0.4751461201702085,0.046379905195735635,0.016326618404794758,0.17631423210984418,0.04082055362316007
0.43529804408231126,0.062054747388271846,0.29569760277156654,0.11170667562347111,0.03686666008320323,0.028656651787931076,0.03383069022911817,0.04394617455636696,0.09227618152968983,0.042075305230928325,0.0212129202436217,0.4724917058742585,0.046775722585661664,0.016203595033328026,0.18022357436460948,0.04199878214820312
0.4315488676192236,0.060118888512961044,0.2984285596710468,0.11141844651491947,0.03640075197708825,0.028226772953842127,0.033903844119428046,0.043708039779607286,0.0911567300788438,0.042126052087202374,0.021808472052453055,0.4697348843760488,0.047184019877261826,0.016107857389360977,0.18414724799100995,0.04321261608849321
0.4276642029806569,0.058212582275217244,0.30112370902049734,0.11114688025020286,0.03596602206257383,0.02781058949386393,0.03398406249519181,0.04345506370983543,0.09006130312492677,0.042223238331394054,0.0224301343354613,0.46687784120105513,0.04760511484881029,0.016040497330738583,0.18808159576520167,0.04446128968811727
0.4236493959126905,0.05633703830572404,0.3037807533618364,0.11089328530025554,0.03556255089728304,0.027408017057641107,0.03407119131420569,0.04318773897756108,0.0889903366827139,0.042367429551426396,0.023078199585616955,0.4639232064964786,0.04803927143035575,0.016002666625075466,0.19202304423385447,0.04574403759134359
0.41950970586799324,0.054493415399612895,0.306397018998402,0.11065882118174125,0.03519051256294374,0.027019005128282685,0.034165108692471434,0.04290662509204071,0.08794415500976971,0.04255914317830312,0.023752968906383638,0.46087406798611474,0.048486722496193055,0.015995583685882324,0.19596814367710735,0.04706009760653661
0.41525004290507606,0.0526828447397433,0.30896962195386124,0.11044450106266274,0.034850172120990286,0.026643542243867453,0.0342657338570392,0.04261233137788746,0.08692294300422362,0.042798833106016454,0.024454749121202723,0.45773393156930803,0.048947691028691745,0.016020536842951513,0.19991359540952805,0.04840870911338706
0.4108747677203568,0.05090644941842194,0.31149564754090847,0.11025124067618923,0.034541876566106036,0.026281656794328034,0.03437303176104524,0.042305496137359275,0.08592673493212073,0.0430868794921551,0.025183847701335447,0.4545066301986334,0.049422405976684014,0.01607888450240178,0.20385626366969126,0.04978910645997946
0.40638765863340187,0.04916535990911537,0.3139723127836151,0.1100799237744046,0.03426603979482862,0.02593341351183286,0.03448701317026355,0.04198676276089337,0.08495542897826147,0.04342358684257495,0.02594056559204047,0.4511961838106744,0.0499111120986708,0.016172052637815314,0.2077931696787982,0.051200506894278006
0.40179206501378356,0.047460725271498104,0.31639710332352106,0.1099314624296622,0.03402312236096744,0.025598905972047725,0.03460773021351597,0.04165675361372965,0.08400881844240632,0.04380918815033309,0.026725188104579644,0.44780661525424986,0.05041407339832643,0.016301530096620356,0.2117214659328216,0.05264209281970253
0.3970911495853663,0.04579372000932678,0.318767877078641,0.10980684597687415,0.03381360701042851,0.02527824560218802,0.03473526756821177,0.04131604519889416,0.08308662500783158,0.04424384957319266,0.027537974129829244,0.4443417292397179,0.05093157008173599,0.016468862208156018,0.2156383894233567,0.05411298953359487
0.392288122520599,0.04416554663850521,0.321082928020087,0.10970717735660122,0.03363797116413871,0.02497154784109471,0.03486972962050388,0.040965154098824584,0.08218852813835155,0.044727672224457046,0.028379144984501205,0.4408048781025558,0.051463889277095214,0.016675643146851795,0.2195411932428036,0.055612245279974944
0.38738643420144553,0.042577434159113914,0.3233410049663424,0.10963369618195648,0.033496660949863845,0.024678916210058577,0.035011224091245595,0.04060454184169136,0.08131418936133494,0.04526069046985035,0.029248876738130404,0.4371987896749764,0.05201131004469407,0.016923507442562595,0.22342705689382977,0.05713882634865289
0.38238992021079427,0.041030632756302726,0.32554128222281137,0.10958778841455777,0.03339007817026976,0.024400427019527306,0.035159842749177155,0.04023463467220077,0.08046327045468771,0.045842867063365184,0.03014729991458097,0.4335255567979005,0.0525740834565825,0.017214120948448798,0.22729297655721148,0.058691633383611816
0.3773028942328029,0.039526405176268535,0.3276832811353935,0.1095709830716675,0.03331858804889144,0.024136121456479694,0.03531564149702167,0.03985584752914209,0.07963544478130706,0.04647408627909935,0.03107450577505349,0.4297868005270484,0.053152408732630906,0.017549171483768004,0.23113565451356133,0.060269531252141434
0.37213018682182547,0.038066015329944344,0.32976674407364137,0.10958493687646115,0.03328254072898046,0.023886010040514032,0.03547862664754447,0.0394686059690196,0.07883040128298527,0.04715414817316453,0.032030554911891954,0.42598391328450186,0.05374640996697679,0.01793035927374266,0.23495144404931906,0.06187138218837504
0.36687713035142283,0.03665071476311365,0.33179146487944344,0.10963140818764995,0.03328229428573234,0.02365008576352612,0.035648755213727616,0.03907336447833966,0.07804784094485315,0.047882767691401595,0.033015485073412634,0.4221182938099326,0.05435612482711742,0.018359387220247426,0.23873639462753712,0.0634960777326721
0.361549492776744,0.03528172769216738,0.33375708226280487,0.10971222188893556,0.03331823363519989,0.02342833863952875,0.03582594892131471,0.03867062072096151,0.07728746585720246,0.048659578924082236,0.0340293171575381,0.41819154281191173,0.05498151290182472,0.01883795096354751,0.24248637223613204,0.06514256762230371
0.35615336503330974,0.03396023603989935,0.3356628731658659,0.10982922717266481,0.03339078419611831,0.02322076801109435,0.036010114030885755,0.038260925432326724,0.07654896131949152,0.04948414117359131,0.03507205890005523,0.41420561084321017,0.05562247682050337,0.01936772864349273,0.24619720171004783,0.06680988377016155
0.35069500885414107,0.032687368663396416,0.33750764512924225,0.10998425030954624,0.03350041982833274,0.023027391795924227,0.0362011605366667,0.03784488784358595,0.07583197173730805,0.050355943716349855,0.036143705860530985,0.4101628921217386,0.056278884822136784,0.019950371554776383,0.24986480526539465,0.06849715754731703
0.3451806734244146,0.03146420067519809,0.33928980432401895,0.1101790445556149,0.033647664860665165,0.02284825238403441,0.03639901863851207,0.03742317668729348,0.07513607134334814,0.051274407935472895,0.037244239409345056,0.4060662605596454,0.0569505899914258,0.020587499601610056,0.2534853298382338,0.07020362876499618
0.3396163905297789,0.03029176371685981,0.3410075509699452,0.11041523931108789,0.033833090317436226,0.02268341906190583,0.03660365186527739,0.036996516994790785,0.07446073418701414,0.052238886271181846,0.038373621539781334,0.4019190470154901,0.05763744509556401,0.02128070440909921,0.25705525737672286,0.07192864502886016
0.33400778250376767,0.02917106115480864,0.3426591006136109,0.11069429568378497,0.034057304741064276,0.022532987005018143,0.03681506635213628,0.036565683037298825,0.07380531592547382,0.053248657653732843,0.03953178646550304,0.39772495960325177,0.058339312244091876,0.022031557845250165,0.2605714925991624,0.07367165050441078
0.3283599666968875,0.028103082401560252,0.34424287877189635,0.11101748507993271,0.03432094027319957,0.022397073036639296,0.03703331591704601,0.03613148788255306,0.07316905969396137,0.05430291932377887,0.04071862911106823,0.3934879516267145,0.05905606681117457,0.02284162217087215,0.2640314233587315,0.07543216357228825
0.3226776152335309,0.02708881459549169,0.3457576739890096,0.11138589985096471,0.03462463488495438,0.022275808491510722,0.03725850273753992,0.03569477013201207,0.07255112299080493,0.05540077674291178,0.04193399122409832,0.3892120442121134,0.05978759529674026,0.02371246035417764,0.26743294963135017,0.07720974334673082
0.3169651194152199,0.026129251563971275,0.34720274066410123,0.11180048208310882,0.03496901182603063,0.022169329642147524,0.03749077359276322,0.03525637846776211,0.07195061168509842,0.05654123722025309,0.04317764867654807,0.3849011128526149,0.060533787050931064,0.024645646252786806,0.27077447823613987,0.07900394555629084
0.3112267669334425,0.02522540014634196,0.3485778454987906,0.11226205182410769,0.03535465880182503,0.022077766238079506,0.03773031180121466,0.034817154672755785,0.07136661148994096,0.0577232128068223,0.044449306747237065,0.3805586644592038,0.061294520035662464,0.025642774276865298,0.2740548816661878,0.08081427151197465
0.30546688804924427,0.02437828408875334,0.34988325429734046,0.11277132825763575,0.035782113162560726,0.022001229000694407,0.037977325145787444,0.03437791579359638,0.07079821377532546,0.058945531572937186,0.04574860671589844,0.37618768030920846,0.0620696410382184,0.026705468059013193,0.27727342079809997,0.08264012574274493
0.29968996188745817,0.02358894583134559,0.35111965897020564,0.1133289436719437,0.03625185981738411,0.021939798818360823,0.03823203022813011,0.033939437254398075,0.07024453446372526,0.06020695234642511,0.047075139380897024,0.37179061460891494,0.06285894097556978,0.027835387593882675,0.28042963270181165,0.08448080768669933
0.2939006800816878,0.022858446581234974,0.35228804777190725,0.11393545052881353,0.03676434083220152,0.021893522823302758,0.03849463382807759,0.03350244189614439,0.06970472502046632,0.061506179668247014,0.04842845958951877,0.36736954890203016,0.06366212878069545,0.02903423428248424,0.28352318622196476,0.08633554650458362
0.288103967243753,0.022187865096791378,0.35338952486800296,0.11459132226740365,0.03731996868621475,0.021862419641516213,0.03876531195562723,0.033067600242767906,0.06917797487353201,0.06284187771437927,0.04980809925951987,0.3629264100964513,0.06447881436901605,0.030303753329649463,0.28655370938115177,0.08820356064303597
0.28230495993111443,0.02157829559836505,0.35442508809844325,0.11529694875592685,0.03791913686728334,0.021846489632934347,0.03904419000387154,0.032635540968556406,0.06866350496242252,0.06421268236636059,0.05121357796556142,0.3584631730278676,0.06530851165147988,0.03164573300204071,0.2895206043705667,0.09008412090143096
0.2765089478276962,0.021030845170637656,0.355395400021203,0.11605262751980168,0.03856222589663847,0.02184572492571154,0.039331332837407515,0.032206865153646506,0.06816055250964938,0.06561721072021567,0.052644410200594,0.3539820214271125,0.06615066012973463,0.033062000358733794,0.29242290507872554,0.09197660856791368
0.2707212826291771,0.020546630938924344,0.35630064657178817,0.11685855201848143,0.03924960451442327,0.021860117385022776,0.039626751006557506,0.03178215955647836,0.06766834751567521,0.0670540674621323,0.05410010850425412,0.3494854611210197,0.06700465409929054,0.03455441321321977,0.2952592560717938,0.0938805657338922
0.2649472615434602,0.02012677719618434,0.3571405711832327,0.11771479830851082,0.03998162605817461,0.021889664272471732,0.0399304178408396,0.031362007646062125,0.06718608188079223,0.06852184769507848,0.055580181778170104,0.34497638177325995,0.06786987148195095,0.03612484826732968,0.29802803013544316,0.09579573509008385
0.2591919933146335,0.0197724125415882,0.35791465631376695,0.11862131141505072,0.040758620366342986,0.021934371477863413,0.040242288277637976,0.030946998295033265,0.06671287561750262,0.07001913595913649,0.05708412827973824,0.340458066074804,0.0687456996517159,0.03777518556322347,0.3007275170725511,0.097722086829612
0.2534602685167409,0.019484666978499758,0.3586223487021653,0.11957789263947545,0.04158088182015657,0.021994254331532355,0.04056231534755723,0.030537732115676987,0.06624775395466023,0.07154450133669127,0.05861142299716852,0.3359341478848916,0.06963155714901662,0.03950728961556292,0.30335611601692,0.09965983072601868
0.24775648619015136,0.019264668822391466,0.3592632594023325,0.12058418886167481,0.04244865438205673,0.02206933612603672,0.04089046344417296,0.03013482549199915,0.06578965129292697,0.07309648866148633,0.06016149935278073,0.3314085232684208,0.07052691030232042,0.04132298803039409,0.30591250713087254,0.10160941200270583
0.24208467978710546,0.019113541198368524,0.35983731713791367,0.12163968466076149,0.043362116616017965,0.022159644584623377,0.041226717850729594,0.029738912420193803,0.06533744188013436,0.0746736059515766,0.06173372551991696,0.3268852205516403,0.07143128393107898,0.04322405151793519,0.3083957962752059,0.1035714902461238
0.2364486189258943,0.019032397871441797,0.36034486713949127,0.12274369778853614,0.04432137351083552,0.022265206604743227,0.041571090132793184,0.029350644317018088,0.06488998190305764,0.07627430825840324,0.06332738017339538,0.3223682373200963,0.07234426548432499,0.04521218386437235,0.3108056272843656,0.10554690131387873
0.23085192669707777,0.01902233815449881,0.3607867106218521,0.12389537820070184,0.04532645935683673,0.022386041673333888,0.041923619157907696,0.028970687990597956,0.06444615024506276,0.0778969781700115,0.064941641169621,0.3178613536297618,0.0732655021695729,0.04728902657033422,0.3131422577402052,0.10753660292292948
0.225298176688531,0.019084440679090226,0.3611640832989148,0.12509371049823653,0.046377347098298424,0.022522154393132553,0.04228436766706896,0.028599721991695616,0.0640048832693301,0.07953990323209058,0.06657559705525852,0.31336795575111553,0.07419469084176528,0.049456172074822405,0.3154065955533999,0.10954160534112874
0.21979096104559195,0.019219756850089777,0.3614785746218974,0.12633751927416415,0.047473957002673865,0.02267352657374793,0.04265341449457959,0.02823843157692031,0.06356520178632072,0.08120125223819635,0.06822827472674335,0.30889095349020385,0.07513156064652413,0.05171517704815502,0.31760019516480326,0.11156288931370387
0.21433392821232786,0.019429307222034738,0.36173199256355315,0.12762547651913972,0.04861616152218493,0.022840109326995765,0.043030842708515045,0.027887502520593722,0.06312622869422685,0.08287905762062066,0.06989867109403781,0.3044328464995676,0.07607584864066326,0.05406757236509196,0.3197252136995939,0.11360132561627188
0.2089307907205087,0.019714084053057038,0.36192618157291717,0.1289561099333242,0.04980378560398719,0.023021816166578023,0.04341672411873205,0.027547614010817602,0.06268719620346672,0.08457121354263088,0.07158578341625821,0.2999958869830186,0.07702726884067305,0.056514868994037834,0.3217843288764112,0.11565763510323088
0.2035853050125425,0.020075059351211493,0.36206280363383053,0.13032781074228922,0.05103660206585012,0.02321851918389157,0.04381110076735045,0.02721943085950393,0.062247442051909324,0.08627549119649967,0.07328863661041807,0.29558225120127496,0.07798547537147034,0.05905855926626652,0.3237806218278493,0.1177324176652593
0.19830122671586628,0.02051319523607664,0.36214312090928263,0.13173883944030956,0.052314321982568766,0.023430049393949555,0.04421396493154624,0.026903595247306154,0.061806394662014284,0.0879895636177715,0.07500630583270941,0.29119418142121434,0.07895002508018109,0.06170011326383534,0.3257174291714742,0.11982622913669277
0.19308224595459725,0.021029454541787146,0.362167877496516,0.13318732780224934,0.05363658119432616,0.0236561994432028,0.044625242741178565,0.026600718213814725,0.06136354775570856,0.08971103303471124,0.07673793271155217,0.2868340910961906,0.0799203557320159,0.06444097036920118,0.3275981696371722,0.12193966756200848
0.18793190813246202,0.021624810878069195,0.3621373567814228,0.1346712755286633,0.055002927889174304,0.023896726163891827,0.04504478946249097,0.02631137150869355,0.06091842549594771,0.09143745843618904,0.07848273377603891,0.28250463012203986,0.08089579476243722,0.06728252633336823,0.32942615127579866,0.12407345113064938
0.18285353172943533,0.022300257597598846,0.36205156805301997,0.1361885400263576,0.056412819480564896,0.02415135205088529,0.045472398773246915,0.02603608186027512,0.06047053973293786,0.09316638259638076,0.08023999987160865,0.2782087090109415,0.08187559392179418,0.07022611652047021,0.3312043750024247,0.1262284832952166
0.1778501517655511,0.02305681511273404,0.3619104597097006,0.13773681808147267,0.0578656321230838,0.024419765737551502,0.04590781894516897,0.025775330445609063,0.06001934709631384,0.09489535765142315,0.08200908568182842,0.27394948279578357,0.08285897356516725,0.07327299625199123,0.33293538524991634,0.12840590191228082
0.17292452154284488,0.023895536038367523,0.3617141041183725,0.13931361855064525,0.05936067751595587,0.024701621711699314,0.046350768136487044,0.025529557783866657,0.059564226455335344,0.09662196818473968,0.0837893888715601,0.2697302973346265,0.08384516662475774,0.07642431938107382,0.3346212401595126,0.13060710990707436
0.1680791709620427,0.024817507708374233,0.3614628400104534,0.14091623023250244,0.060897220255098305,0.024996539569487452,0.046800945835083416,0.025299171137355626,0.05910449319410026,0.09834385065885685,0.08558031881867408,0.2655546023524965,0.0848334592698486,0.07968111688876857,0.33626361465840504,0.13283378576567018
0.16331648527047066,0.025823851716208063,0.3611573665171961,0.14254170160140733,0.06247449262379988,0.02530410313433873,0.0472580396658442,0.025084551775922833,0.05863944100935486,0.10005870794752851,0.08738125539090578,0.2614258369725075,0.08582322671160483,0.08304427907253528,0.3378639691971397,0.135087873063125
0.15863877412242702,0.026915720258825597,0.3607987853415439,0.14418685145963547,0.0640917054007557,0.02562385976642188,0.047721726998033544,0.02488606130147265,0.05816838995425316,0.10176431768771202,0.08919150109142485,0.25734729459943684,0.08681396268639302,0.08651454512495181,0.3394237183131293,0.13737154919843683
0.15404832186605183,0.028094289208760725,0.36038859000946644,0.14584831075354845,0.0657480534351903,0.02595532015551259,0.048191671064009255,0.02470404693100837,0.057690729215542295,0.10345853319958008,0.09101024079508165,0.253321986113418,0.08780530127702986,0.09009249927565786,0.34094437757907753,0.13968717447720913
0.14954741808027344,0.029360747992318536,0.3599286035353011,0.14752258045274655,0.06744271499574772,0.02629795882773602,0.04866751161754216,0.02453884565841194,0.057205951452303415,0.1051392758248148,0.0928365328482632,0.24935255091310476,0.08879702990520752,0.09377856792466893,0.3424276855101012,0.1420372236087178
0.1451383685710857,0.030716286502961557,0.3594208680809717,0.14920609365019816,0.0691748442295005,0.026651215508868512,0.049148850501846045,0.024390787239459727,0.0567136771728524,0.10680451771584203,0.09466934050013753,0.2454412668027718,0.08978909254773274,0.09757301323234566,0.34387569792056166,0.14442420251516466
0.14082348811876325,0.032162079419147546,0.358867492209591,0.15089527685585094,0.07094355645144793,0.027014497379732497,0.04963523314774349,0.024260195971204438,0.05621366815498869,0.10845225437403609,0.09650758659996085,0.2415901488718603,0.09078158249037459,0.10147592242793077,0.34529085313849595,0.14685055404169742
0.1366050771890104,0.033699268953243725,0.3582704630644909,0.15258660701347174,0.07274790640074977,0.027387182140864774,0.05012613071146201,0.02414739126559843,0.055705829488820635,0.11008046658097571,0.09835021135074799,0.23780107789304955,0.09177472423121168,0.10548719559314296,0.3466760073700082,0.14931856562679519
0.1324853855390422,0.03532894986580832,0.35763144256164,0.15427666058002362,0.07458686107124811,0.027768621683425813,0.05062093289744825,0.02405268704776086,0.055190200406439766,0.1116870717859244,0.10019622497288894,0.23407591378059092,0.09276884447475373,0.10960653733385083,0.3480344403328358,0.15183031284296936
0.1284665661384539,0.03705216329927944,0.35695160799844017,0.15596215101549857,0.07645927488139923,0.02815814605095352,0.051118957085794406,0.023976390041176014,0.05466693462430236,0.11326986959093882,0.10204475245089285,0.2304165806369769,0.0937643325123496,0.11383345531102204,0.3493698320295739,0.1543876677703371
0.12455062396259141,0.03886990188171129,0.35623162502019395,0.15763995125897168,0.07836388166677424,0.028555067281587368,0.05161946702581622,0.023918797034769016,0.05413627143041034,0.11482650037937475,0.10389506775402339,0.2268251204571077,0.09476159065600426,0.11816726251576509,0.35068621219569823,0.1569923581414243
0.1207393723686469,0.04078312094707226,0.3554717732978234,0.15930709822175074,0.08029931045420295,0.028958682651672108,0.05212169129364638,0.023880191259412223,0.05359849917223778,0.11635444430180102,0.10574661528284382,0.22330371432299154,0.09576097577282182,0.12260707829677808,0.35198788453114843,0.15964603904804528
0.11703442047276458,0.042792749831553054,0.35467214796413643,0.16096077700496944,0.08226411570933256,0.029368276806499474,0.052624837222393306,0.023860838032821047,0.053053913122016814,0.11785106696928542,0.10759901678719336,0.21985467175146284,0.096762741099989,0.12715182518957308,0.35327932830785175,0.16235035423000682
0.11343720161960658,0.04489970099041632,0.35383285743503484,0.16259828342615648,0.08425680964677335,0.029783122267318187,0.0531280989116269,0.02386097986050761,0.05250277322882437,0.11931369098821364,0.10945206260726469,0.2164803906474538,0.09776700509388489,0.13180021983847862,0.35456508034334644,0.16510698079333366
0.10994902340481114,0.04710487639885794,0.35295418907506915,0.16421696448176096,0.08627589137618157,0.030202477848011083,0.05363065824365861,0.023880831204721405,0.05194527626006464,0.12073967219012048,0.11130568678119944,0.21318329195486233,0.0987737698719843,0.13655075668720737,0.3558496006484462,0.16791765550681123
0.10657111527826434,0.049409170797199455,0.35203673568934585,0.165814137531024,0.088319871106534,0.030625584599674075,0.054131678251568734,0.0239205731512036,0.05138155733968963,0.12212647223990851,0.11315992630683656,0.2099657344763225,0.09978297849417148,0.14140168738955539,0.3571371253023594,0.17078418177276916
0.10330466541418827,0.051813471451369594,0.3510814775377806,0.1673869942256392,0.09038728785204755,0.031051659023545744,0.054630288675230156,0.02398034821309183,0.050811718076159154,0.12347172413343015,0.11501486560449745,0.20682991635312414,0.10079458423019008,0.14635100786310734,0.358431510289698,0.1737084173572213
0.10015084616243647,0.05431865421920555,0.3500898165027117,0.16893251723269584,0.09247671939200848,0.031479883446368546,0.05512556457896976,0.024060255872891293,0.05023586390386467,0.12477328708798847,0.11687056796211336,0.20377777787573104,0.10180861714058666,0.15139646411027047,0.35973608769534476,0.1766922439480834
0.09711082803981538,0.05692557583693298,0.349063561118373,0.17044746053234056,0.09458678361254659,0.03190939527785325,0.055616504559138656,0.02416035010193397,0.04965413772677624,0.1260292875012841,0.11872700110846748,0.2008109393671041,0.10282524365724005,0.15653557394233503,0.3610535923395986,0.17973752054114533
0.09418578280486273,0.05963506246409423,0.348004863305112,0.17192841563416997,0.09671613077606728,0.03233928094692713,0.05610202343463312,0.024280639418653327,0.04906674612371926,0.12723814301477587,0.12058398048921218,0.19793070505327195,0.10384481650078073,0.16176565461534007,0.3623862011915423,0.18284602348670428
0.0913768766591187,0.062447894645729495,0.3469161097531662,0.17337192856805853,0.09886342669607599,0.03276858012219618,0.05658096875137935,0.024421088197189633,0.048473977452666336,0.12839856726489188,0.1224411620655388,0.19513812123039476,0.10486791251944769,0.16708385009630328,0.36373565181121364,0.18601937672355232
0.08868525501480928,0.06536478896499037,0.3457997728806753,0.17477462306104258,0.10102732721343904,0.033196298962507524,0.05705215286651317,0.02458161751686797,0.04787621161839012,0.12950955362692856,0.12429808969042264,0.19243404693738683,0.10589535642414703,0.17248715419713354,0.3651033779140981,0.18925897625506574
0.08611202055296861,0.06838637676530118,0.34465822806225405,0.17613331151735467,0.10320644474851602,0.03362142699126406,0.05751438730949538,0.02476210487449934,0.04727392167639605,0.13057033712698526,0.12615426888290365,0.18981920879924907,0.10692822892136829,0.17797242572312938,0.3664906336317063,0.19256592098411704
0.08365820646465053,0.07151318250276847,0.34349355388795666,0.17744508759244926,0.1053993080201081,0.03404295409996552,0.057966513259682766,0.024962382752638162,0.04666766781522891,0.1315803346811493,0.12800923985279572,0.18729423328848507,0.1079678583909856,0.1835363919073586,0.3678986010070312,0.1959409761014699
0.08132474682479733,0.07474560912371582,0.34230737119856874,0.17870739478521203,0.10760431796923552,0.034459886291977396,0.058407425773065555,0.02518223664893308,0.04605808457178106,0.1325390648728407,0.12986263990473895,0.1848596570551412,0.10901579598925011,0.1891756368819012,0.369328478092603,0.19938458251292632
0.07911244961821534,0.07808393696063225,0.3411008083715174,0.17991806645231412,0.10981971097087159,0.03487125915284075,0.05883608967092636,0.025421404151546492,0.045445862377340634,0.13344604954527967,0.13171425221112293,0.18251591768120248,0.11007377483667263,0.19488657276697133,0.3707815455898358,0.20289688999079916
0.07702198497800702,0.08152833354926965,0.3398746189508972,0.18107533393390057,0.1120435476505825,0.035276148064818214,0.059251545438747194,0.02567957625375379,0.04483172469829287,0.13430071202181917,0.13356403853133433,0.18026332865966369,0.11114365472579356,0.20066539210185852,0.37225921064030293,0.20647778436309502
0.0750538966292662,0.08507886694362439,0.3386293778338969,0.18217780100823258,0.11427373390524954,0.03567367427503191,0.059652904051053966,0.02595640024021804,0.044216402122634745,0.13510231559611363,0.1354121541593434,0.17810204346345335,0.11222735450058759,0.20650800714855544,0.3737630271322489,0.21012689770016083
0.07320862787553056,0.08873551823824351,0.337365675147455,0.18322438458410853,0.11650806023232654,0.03606300607754113,0.06003933030273467,0.026251482746167943,0.04360060475476733,0.13584998425681755,0.137258944167585,0.17603201416929024,0.11332677486397105,0.212410000656182,0.3752946926867531,0.21384360018112242
0.0714865482064836,0.09249819201208986,0.3360842782549267,0.1842142232999393,0.11874424352943118,0.036443354575507944,0.060410014946927576,0.026564392209665985,0.04298499616493429,0.13654279441289732,0.13910492084388698,0.17405295019287464,0.11444372041925728,0.21836662261678996,0.376856023294989,0.2176269734856762
0.06988797453627604,0.09636672395226645,0.33478625502402803,0.18514655742554686,0.12097996580526191,0.03681396374214692,0.06076413666555297,0.026894660303015697,0.042370176996048545,0.13717989132419023,0.14095072305034123,0.17216428227619995,0.11557984575834107,0.22437284106507896,0.37844890734126224,0.221475768169678
0.06841318626905508,0.10034088495100378,0.33347305327189525,0.18602058505404132,0.12321290875073643,0.03717409478705918,0.06110082102947887,0.027241781955281735,0.04175668598063683,0.13776059925190878,0.14279705903022893,0.1703651359915525,0.11673665304528526,0.2304234213544399,0.3800752414131799,0.22538835919048134
0.06706243415112335,0.10442038102629068,0.33214653330911986,0.18683532258376298,0.12544078324056832,0.037523005143432375,0.06141911681785523,0.027605213634446128,0.04114501574265004,0.13828451509666267,0.1446446349162366,0.1686543177761408,0.11791553841117189,0.23651300702542305,0.3817368508200282,0.22936272921027562
0.06583594315345079,0.10860484849614475,0.3308089526334653,0.187589541353916,0.12766135292454295,0.03785992447897948,0.061718008175476236,0.0279843696441769,0.04053563321572499,0.138751580777868,0.1464940718194875,0.16703031500390547,0.11911785736395562,0.24263618954976235,0.3834353980714147,0.23339649714438407
0.06473390987615986,0.1128938439391102,0.3294629039727125,0.1882818285053753,0.12987245112013404,0.038184036403600345,0.06199645642171532,0.02837861725484509,0.039928997756019935,0.1391621305619065,0.14834582349088093,0.16549130997526704,0.12034498590309686,0.2487875597928207,0.38517228268275266,0.23748697558197202
0.06375649517045688,0.11728682859894804,0.3281112099439723,0.1889107278192541,0.1320719902387451,0.038494477849227854,0.06225345085409771,0.02878727394455878,0.039325575280303095,0.13951691075511247,0.1502001267925291,0.1640352061080225,0.12159837048950525,0.2549617346512299,0.3869485355626299,0.24163123129716638
0.0629038128284133,0.12178314703882728,0.32675677949101134,0.18947488905667634,0.1342579629805213,0.03879035848090275,0.06248805552606278,0.0292096102167959,0.03872584837374977,0.1398170705807805,0.1520570131908714,0.16265966318534184,0.12287956578207837,0.2611533534724488,0.38876471091092907,0.2458261363800797
0.06217591529475031,0.12638200001809075,0.3254024329011502,0.18997319614661992,0.13642843453823042,0.03907079028001003,0.06269944761707943,0.029644857785218595,0.03813032246319553,0.14006412457844106,0.15391636910818493,0.16136213738525154,0.1241902597457239,0.2673570404991257,0.3906207789640264,0.25006840453779117
0.0615727774075326,0.1310824117504931,0.32405071156507076,0.19040486762595876,0.13858152508466665,0.039334917472892104,0.06288694515848818,0.0300922204418574,0.037539528273598285,0.14025988840681955,0.1557780099095386,0.16013992107889277,0.125532286370686,0.27356733161504426,0.3925160352625481,0.2543546077278592
0.06109427989717615,0.135883195370911,0.3227037250710672,0.1907695244472414,0.14071538190702304,0.039581942938357983,0.06305002249725115,0.03055088572355971,0.03695402087774001,0.14040639139928263,0.1576417460477739,0.1589901771068594,0.12690762677236883,0.27977856597906825,0.39444906237883814,0.25868116924448026
0.06074019700925255,0.14078292914054377,0.3213631176471124,0.19106722193592005,0.14282814071907593,0.03981114959271767,0.06318831259684016,0.031020036504633853,0.03637437571371641,0.14050577051118238,0.15950743514768131,0.15790996245005168,0.12831839983060375,0.2859847590057584,0.39641776339398305,0.2630443306366036
0.06051019396639449,0.14577995598203497,0.3200301777905567,0.19129844450653471,0.1449178759442293,0.040021915447469705,0.06330159603944907,0.03149886178813834,0.03580118198527091,0.1405601513185305,0.16137501751444755,0.15689623688963392,0.12976684375929287,0.2921795125797585,0.3984194398820187,0.26744009133347557
0.06040383470242937,0.15087240414448294,0.31870602091800143,0.19146406363196358,0.14698254012638098,0.04021372131199938,0.06338977735318968,0.03198656595040953,0.03523503388134697,0.14057153541247216,0.16324453324461904,0.1559458533473913,0.13125529007065703,0.29835602737125244,0.4004508788908871,0.271864123502812
0.060420593598543355,0.15605821698242153,0.31739176859992096,0.19156526139526803,0.14901990011120844,0.0403861504584613,0.06345284998968077,0.03248237572180958,0.034676520058453134,0.14054174050576307,0.16511611990221606,0.15505552802694192,0.132786131328864,0.30450721828876326,0.4025084381090635,0.2763116861171209
0.06055986539342016,0.16133518384725856,0.3160886965799695,0.19160342363943345,0.15102749641864835,0.04053887996065038,0.06349085187466633,0.032985544261114205,0.03412621182721118,0.14047242552992856,0.16698999057115047,0.15422179309462555,0.1343617839066464,0.3106258752690663,0.4045881299259475,0.28077759447627615
0.060820971454810704,0.16670096933302014,0.31479834523132466,0.19158000817764662,0.15300265446995578,0.04067166384173144,0.06350381390947374,0.03349535179784815,0.03358465047650154,0.14036517257618977,0.16886639297694214,0.15344095191798718,0.13598464670844523,0.3167048204525236,0.4066857047430347,0.285256281598098
0.061203162259549415,0.17215313920117026,0.3135225877765372,0.19149639702872848,0.15494254511552327,0.040784308593552615,0.06349171038183073,0.03401110246964472,0.03305233448870017,0.140221574753363,0.1707455512516229,0.1527090754842642,0.13765705655423605,0.32273704149828875,0.40879673328587696,0.2897419224511253
0.06170561609627067,0.177689181234144,0.3122636534848687,0.19135376525697698,0.1568442675236513,0.04087664203846111,0.06345443339228313,0.03453211716133974,0.032529709377922024,0.1400433057363941,0.17262759275914735,0.15202205982392497,0.13938124067997756,0.3287157904357805,0.4109166868524193,0.2942285727961078
0.06232743416468337,0.18330651925121094,0.31102410508450873,0.1911530317157115,0.15870493443059727,0.04094847869084041,0.06339180721203076,0.03505772234828249,0.03201716505482707,0.13983216663510883,0.174512465519054,0.15137572194791804,0.1411592666487043,0.3346346389460687,0.4130410134863197,0.29871030072565613
0.06306763239250776,0.1890025185732977,0.30980677169996385,0.19089492401315877,0.16052175250046344,0.0409995922409937,0.06330363021495028,0.03558723514673507,0.031515042488678424,0.13959010965872154,0.176399866515456,0.1507659022512033,0.14299299406044086,0.34048748312367755,0.41516520707950405,0.3031813026629636
0.06392513042203503,0.19477448135380282,0.308614640655219,0.19058010854475063,0.16229209388151447,0.04102971095797981,0.06318972130504134,0.036119944967763426,0.03102364533034536,0.1393192396063997,0.17828921737015813,0.15018855827563987,0.14488404334924737,0.3462684934728153,0.4172848654939246,0.3076359959502022
0.06489873945865635,0.20061963040618316,0.3074507133775097,0.1902093209905671,0.16401355506330856,0.04103854007674582,0.06304995996372761,0.03665509515072393,0.030543251528100442,0.13902179561970332,0.18017970256297147,0.14963984309816128,0.1468337980218256,0.3519720089884928,0.41939573305852706,0.31206908098292246
0.0659871536579738,0.20653508045892474,0.3063178323046927,0.18978347305129273,0.16568399937283634,0.041025797856029694,0.06288431781179492,0.03719187394128753,0.030074123240806085,0.13870011678433117,0.1820703417613118,0.14911616233003175,0.14884343751710055,0.3575923774771728,0.4214937223466701,0.3164755670939347
0.06718894983016307,0.21251779615321395,0.30521850612242957,0.18930373116799584,0.1673015799014791,0.04099125122949724,0.06269288100416977,0.03772942187963575,0.029616514830465665,0.1383565959855502,0.18396006118111025,0.14861420489418495,0.1509139830014769,0.363123747578511,0.4235749100572491,0.32085075799902196
0.0685025947088094,0.21856453656239738,0.30415480642547743,0.18877156441777562,0.1688647403172518,0.04093474581229421,0.06247586325362892,0.03826685094806066,0.029170678777584908,0.1379936268540424,0.18584775019664931,0.14813094430874865,0.15304634324450211,0.368559854714121,0.42563550216962326,0.32519019450632614
0.06992645477818034,0.22467178654439046,0.3031284014260763,0.1881887603089034,0.1703721918628554,0.0408562288442709,0.06223360969942948,0.03880326650520535,0.028736869431832998,0.1376135486706257,0.1877322995446455,0.14766360903439152,0.1552413562164347,0.37389391564274344,0.42767176434685095,0.3294895542638553
0.07145880493557223,0.23083568552103073,0.30214070155932554,0.1875574087381858,0.1718228658318513,0.040755764013500916,0.06196659217851949,0.039337787868276075,0.028315344584571783,0.13721859374692624,0.18961261829702825,0.1472096224086918,0.15749982427275358,0.3791187177570628,0.42967991481708834,0.3337445104671352
0.07309783464993705,0.23705198650393913,0.30119303690008675,0.1868798558460403,0.17321584190646003,0.04063353752286817,0.0616753967109071,0.03986956646632661,0.027906364925461967,0.13681084111302044,0.1914876277969428,0.1467665146493464,0.1598225407476283,0.3842268460770204,0.4316559786257168,0.33795055355909426
0.0748416509991796,0.24331607387982102,0.30028681565696763,0.18615863084408116,0.17455025387753625,0.04048985521473376,0.0613607041780933,0.04039780075865275,0.027510191518797075,0.1363921793961652,0.19335623192037596,0.14633181121735353,0.16221030594607314,0.3892109368348047,0.4335956041422475,0.34210280416820776
0.07668827806867362,0.24962302861915064,0.2994236485457622,0.18539635003816987,0.17582517539158204,0.0403251310281155,0.06102326526449731,0.04092174722890149,0.027127081502716224,0.13596428065806457,0.19521726428696082,0.14590291905711833,0.16466393092095918,0.394063904187059,0.4354938730272195,0.3461959005103382
0.07863565231765159,0.25596771031620513,0.2986054331756281,0.18459560318064872,0.17703950483573938,0.04013986750283509,0.06066387076298115,0.041440726908320395,0.02675728227230362,0.13552858577117458,0.1970694143342579,0.14547706702004007,0.16718422803852126,0.39877912411358085,0.4373452006498668,0.35022403935030755
0.08068161366531172,0.26234483937734304,0.2978343944908553,0.18375883370749638,0.17819190351909736,0.03993462944009223,0.060283318336146,0.04195412704421122,0.026401024452647748,0.13508630075693662,0.19891114196458126,0.14505134470607622,0.16977198813980726,0.4033505639041776,0.43914341278490265,0.3541811491252505
0.08282389221111482,0.26874907383817537,0.29711307943317056,0.18288824668484485,0.1792808325283572,0.03971001215593761,0.05988237679402159,0.04246139770532693,0.026058513998126965,0.1346384024720436,0.20074061265191243,0.14462281353658876,0.17242794503590678,0.407772848336729,0.44088196566760773,0.3580611101272526
0.08506009076152198,0.2751750765501124,0.29644430622738766,0.18198579175917667,0.18030466631414685,0.039466606121923355,0.059461751586970174,0.042962043297853136,0.02572992376834191,0.13418565118886658,0.20255569472682364,0.14418863239925714,0.17515272905164636,0.4120412568659123,0.44255421488477475,0.36185796620971655
0.08738766656447014,0.28161756845454106,0.2958310709415264,0.18105322955259198,0.18126182822803893,0.039204964680679424,0.05902206248696655,0.04345560914726148,0.02541538582049893,0.1337286070288746,0.20435402485430323,0.14374616730688106,0.17794681226252126,0.4161516496801797,0.44415367854162763,0.3655661097326704
0.08980392176749673,0.2880713638332353,0.2952764161212159,0.18009223693645618,0.18215091767614716,0.03892559004897887,0.058563845349125385,0.043941663476705105,0.025114987530730434,0.13326764690682952,0.20613310552549774,0.14329307667690128,0.1808104488555301,0.4201003241363109,0.4456742762340508,0.36918043058846817
0.09230600971146431,0.2945313837990731,0.2947832682368921,0.17910450712842507,0.18297081986714037,0.03862894630426754,0.058087576168883034,0.04441977527619803,0.024828773826666956,0.13280297863870008,0.20789039980863275,0.14282736815904595,0.18374361706746808,0.42388380663923775,0.4471105312347315,0.3726964215096773
0.09489095273046759,0.300992644875503,0.29435426613826376,0.1780918296728874,0.1837207929345874,0.038315488182624466,0.057593704082947644,0.04488948870364335,0.02455675371370271,0.13233464914425397,0.20962340956804318,0.14234742458795124,0.18674597613332622,0.42749858830914256,0.44845772426955677,0.3761102335907772
0.09755566326083917,0.3074502203003111,0.2939916427492976,0.17705614761053173,0.18440052806443513,0.03798569000491634,0.05708268325577818,0.0453502976207225,0.024298907594942853,0.13186254420236324,0.2113297316239413,0.14185199835306278,0.18981685086303662,0.43094083710684516,0.44971198895146725,0.3794186779808757
0.10029696464799702,0.3138991726622651,0.2936972291702211,0.17599959029975937,0.18501017933751718,0.03764006895495102,0.056555000639788,0.045801630618987205,0.024055193671779426,0.13138637794313301,0.21300708731574816,0.1413401751492559,0.19295523864596298,0.43420618782494863,0.45087034128726045,0.3826191719411393
0.10311161047519121,0.32033445761041346,0.29347257603024185,0.17492448153167636,0.18555036125926821,0.03727920203321003,0.056011198807818505,0.04624285595092608,0.023825553128925276,0.1309056712074382,0.21465332222601455,0.14081130960273233,0.19615981891108017,0.4372897364898075,0.4519306385659178,0.38570962981441353
0.10599630118103291,0.3267507996268508,0.2933191190030235,0.1738333237203459,0.18602211333917987,0.03690373638681804,0.05545189317215069,0.04667330296869809,0.02360991406472106,0.13041972568489094,0.2162663743597809,0.14026493658294784,0.19942895036519198,0.44018624939224504,0.45289146622205606,0.38868830182606895
0.10894769671965175,0.33314255002883214,0.29323832946419176,0.1727287599933643,0.18642683253859033,0.03651439308478474,0.05487778306347689,0.047092289168918625,0.02340819417636371,0.12992761574833103,0.2178442107774016,0.13970066306149406,0.20276065288487646,0.4428904700900666,0.45375195476269886,0.3915535659233804
0.11196242405326207,0.3395035703703354,0.2932318305069034,0.17161351690438842,0.18676617586030303,0.03611196474419357,0.05428965634439724,0.047499146173054424,0.023220302250872675,0.1294282157429544,0.21938473445499546,0.13911805014937353,0.20615258167907968,0.4453974194565044,0.4545115323504762,0.3943036799664749
0.11503707835535044,0.3458272103066185,0.2933014726057458,0.17049033119925247,0.18704193673862454,0.03569730769852974,0.05368838746834347,0.04789324271465355,0.02304613854440623,0.1289202543813884,0.22088566852779323,0.13851651576328605,0.2096020140276045,0.44770265102314344,0.45516962194899113,0.3969365287763028
0.11816821694554071,0.35210640338711213,0.2934493654909514,0.16936186456419483,0.18725590013625515,0.0352713296192979,0.05307492915475439,0.04827400376910343,0.022885594154116593,0.12840237779046432,0.2223444507415671,0.13789530786169873,0.21310586375217586,0.4498024489781087,0.45572531955884327,0.39944946533663866
0.12135234517446783,0.3583338305422147,0.2936778652724174,0.16823061344945142,0.187409698811279,0.034834973647791125,0.052450298119497175,0.0486409250673389,0.022738549498171574,0.12787321227723364,0.22375820213403746,0.1372535650358891,0.21666071441517934,0.45169395849472915,0.45617716635955674,0.4018393442990747
0.12458589372657067,0.3645020942044434,0.2939895183853468,0.16709883597412073,0.18750473147286337,0.03438920016268915,0.051815555558362994,0.04899358236770206,0.022604872021740333,0.12733142332780203,0.22512380223446368,0.13659042231015622,0.22026285261070525,0.45337524084934416,0.4565231510679972,0.404102724907719
0.12786518710610129,0.37060388025059726,0.2943869663591539,0.16596853203678918,0.18754219474263562,0.03393496730424163,0.05117178331281796,0.04933163501726507,0.022484413241157058,0.12677576745739555,0.22643802837435478,0.13590511430520888,0.22390829074332133,0.45484524895537826,0.45676094673835216,0.40623613489141136
0.1311864034098795,0.37663209937857406,0.2948728175867454,0.16484148846612923,0.18752320464183073,0.03347321130532516,0.050520056834155704,0.04965482351190753,0.022377005227237408,0.1262051338410333,0.22769770134914455,0.13519705835601956,0.22759277386306787,0.45610372239555774,0.45688825038364556,0.4082363203369808
0.13454553067047417,0.3825799998168651,0.29544949405746135,0.163719358086278,0.1874489421996663,0.03300482858253207,0.049861416190804544,0.04996296095893265,0.02228245661439214,0.12561857314304967,0.22889981336565537,0.13446591402233468,0.23131176615633414,0.4571510046584354,0.45690311170951275,0.4101004580431677
0.13793833782784032,0.3884412439507586,0.2961190760111598,0.16260373799319544,0.18732078464672933,0.032530664149353475,0.04919683933128852,0.05025591855171729,0.022200548207458825,0.12501531159321563,0.23004163078097314,0.13371161648956886,0.23506041419137194,0.4579877889418216,0.4568042115530014,0.4118263215180264
0.14136037982262942,0.3942099425363452,0.2968832018389515,0.16149623519495995,0.18714041126148978,0.032051510795498325,0.04852722796422637,0.0505336053767516,0.02213102824552466,0.12439474908438806,0.23112076528408618,0.13293438253447148,0.23883349549516192,0.45861480241661157,0.4565910778043998,0.4134123938170646
0.1448070353596707,0.39988064164065545,0.29774307651870285,0.1603985180065279,0.18690987933564357,0.031568117431174575,0.04785341363353889,0.05079594308267025,0.022073607830559498,0.12375644084624945,0.23213520869171816,0.13213468899309247,0.24262538715458068,0.45903246867185743,0.4562642294628374,0.4148579227795354
0.14827355982873885,0.4054482592518276,0.2986995706538723,0.1593123521576818,0.18663166717523594,0.031081200236258873,0.04717617790824705,0.05104283614106441,0.022027958198537763,0.12310006303767086,0.23308332834300896,0.1313132249793327,0.24643009235568025,0.45924066942608005,0.4558252427932325,0.4161629167832592
0.15175514049612085,0.4109079705845586,0.2997533432713018,0.1582396210969754,0.18630868268551484,0.030591452178364283,0.046496274860365255,0.05127414103193106,0.021993711579222926,0.12242536335612202,0.23396382208503055,0.13047082041155966,0.2502413238198768,0.45923874990875596,0.45527673714527545,0.4173280817656142
0.15524694924773452,0.41625504338137254,0.300904942884916,0.15718233044609156,0.18594423781374605,0.030099549974828395,0.045814449903580017,0.05148964489788493,0.021970465315966105,0.12173209845127288,0.23477563393185805,0.1296083546524584,0.2540526140340257,0.45902577029381597,0.4546222816856543,0.41835470280482506
0.15874419019413777,0.42148462688090194,0.3021548736770866,0.15614259697974353,0.18554199085127673,0.029606158719763593,0.045131453922959745,0.05168906617481913,0.021957787398317757,0.121019960522744,0.23551783353854716,0.12872665423193977,0.25785742914160065,0.4586008620822769,0.4538662279013861,0.4192444758802304
0.16224213938658152,0.42659151187724037,0.303503623907919,0.15512262288477796,0.18510586022486814,0.029111934473320042,0.044448052618472844,0.051872077226195114,0.021955222136750184,0.12028850563325434,0.23618946454460918,0.1278264084875858,0.26164927537269633,0.4579635681183502,0.4530134760790781,0.41999929740644626
0.1657361739450221,0.4315699318882975,0.30495165600196666,0.15412465640046202,0.18463991484049974,0.02861752515299169,0.043765031241293044,0.0520383367764473,0.021962295607548643,0.11953711736571558,0.23678938311382522,0.12690814888455196,0.26542178970638075,0.4571141231673252,0.452069186889802,0.4206210206624888
0.16922178807405164,0.4364135208849523,0.30649936011427037,0.15315094027129109,0.18414824719162795,0.02812357007950646,0.04308319512780943,0.05218752193571209,0.021978520714583717,0.11876503209103773,0.23731614912721027,0.1259723061036394,0.2691688070562312,0.45605366066042885,0.45103845157080913,0.42111119207746944
0.17269459374694576,0.4411154688706195,0.30814697521405326,0.15220364976093026,0.1836348392026175,0.027630698517825774,0.0424033666187765,0.05231935635686179,0.022003401691560353,0.11797140958640541,0.237768038531405,0.12501930559823446,0.2728843974061311,0.45478433484683245,0.4499259675791807,0.4214708181998152
0.17615030427209924,0.44566878855609793,0.309894483722087,0.15128482228108767,0.1831034501645469,0.027139527523402887,0.0417263790808535,0.05243363339738722,0.02203643785072922,0.1171554144264015,0.2381431713285032,0.12404965765839052,0.27656286790566187,0.45330935193608124,0.4487358427187672,0.4217002725705591
0.17958469951462172,0.4500665925198162,0.31174149035948334,0.15039628995865692,0.18255757700476455,0.02665065936185773,0.04105306881996891,0.052530233327723205,0.02207712637462174,0.11631629050513104,0.23843968539791158,0.12306402538185272,0.2801987268414819,0.4516329086253832,0.44747163818177743,0.42179940058834187
0.1829935722168177,0.45430234129742025,0.3136871157612829,0.14953964589066243,0.18200050439975302,0.026164678723082133,0.0403842656899923,0.05260913384269354,0.022124963948469637,0.11545342421517348,0.23865590116475338,0.1220632666278841,0.28378660849687054,0.4497600414003971,0.44613660636962643,0.4217677416535804
0.1863726556258145,0.45837004980616225,0.3157299562005773,0.14871626780446798,0.1814353994117626,0.025682149904091497,0.03972078315977717,0.0526704133860562,0.022179447044541,0.11456639392431987,0.23879045835169171,0.12104844764089351,0.28732116005862496,0.44769639486469964,0.4447339840353258,0.42160476003536845
0.18971753346903764,0.46226444090844715,0.3178681279817417,0.14792738348037743,0.18086539878343486,0.02520361409295929,0.039063408514153256,0.05271424707937634,0.02224007069689212,0.11365500393347633,0.23884241821422175,0.12002082784760257,0.29079689380117224,0.4454479217783513,0.44326725249332605,0.42131004555615853
0.19302354786474896,0.46598103693165355,0.3200993518629559,0.14717414576818744,0.18029367115241848,0.024729586851589873,0.03841289374018929,0.05274089534329965,0.022306325646187623,0.11271930171297953,0.2388113263288003,0.11898181722914514,0.2942080259369668,0.44302053117778584,0.4417403409490844,0.42088347953305855
0.19628575143093233,0.46951618251050753,0.3224210246908736,0.14645770099813443,0.1797234526438799,0.024260555868910988,0.03776994750117289,0.05275068559800675,0.022377693788495343,0.11175957787721436,0.2386972329150242,0.11793290950927166,0.29754836880532876,0.44041974594605465,0.44015776663713774,0.42032536294271433
0.19949894195938603,0.47286699509224256,0.324830258027292,0.1457792466933199,0.17915805600390325,0.02379697903772292,0.037135228440307505,0.05274398771588697,0.022453641927695438,0.11077634904413775,0.2385006697314512,0.11687559604058566,0.3008113499118368,0.43765052181301883,0.43852470872776045,0.41963650517646117
0.20265776106710284,0.4760312427031468,0.3273238797157013,0.14514007632808876,0.17860085507297271,0.023339282896036314,0.03650933989709841,0.052721184159154846,0.022533613905838943,0.10977032441086718,0.23822258468727414,0.11581127672652793,0.30399015357578774,0.43471734077795965,0.4368470162564105,0.41881827296210444
0.20575681269766005,0.47900715195658305,0.32989839691208894,0.14454160933518626,0.17805524785786248,0.02288786146446795,0.035892825973713086,0.052682635955165945,0.02261702231230714,0.10874235753174598,0.23786423735518233,0.11474120793175846,0.307077915045288,0.4316244975465595,0.43513115345585435,0.4178726000185278
0.2087907783667487,0.4817931526142502,0.33254992190760196,0.1439854051178263,0.1775246026481815,0.022443075501923263,0.03528616876621708,0.05262864948179667,0.022703243608850045,0.10769338538405869,0.23742706045375642,0.1136665204853002,0.3100679122193837,0.4283764162262293,0.433384088651185,0.41680195878136006
0.21175452183473037,0.48438756811993755,0.3352740780483737,0.1434731604462094,0.1770121924678282,0.022005252189248377,0.03468978648391012,0.052559457485058025,0.02279162047676123,0.10662435732262722,0.2369124939976546,0.1125882910699546,0.3129537353873285,0.42497791472716784,0.4316131351635846,0.4156092961219175
0.21464317769901067,0.4867882949917265,0.3380659384779343,0.14300669028231758,0.17652112360547254,0.021574685232260606,0.03410403212347231,0.05247522585693469,0.022881470592765532,0.10553615922564191,0.23632181222255186,0.11150762313314942,0.31572942638235485,0.42143439800433513,0.4298257543493781,0.41429793542780324
0.21745221870097642,0.4889925956083983,0.3409200518028691,0.14258789275086392,0.17605426554131476,0.021151635350092478,0.03352919249329096,0.0523760807812303,0.022972097979091107,0.10442955110504072,0.2356560006972615,0.11042571096657451,0.31838957957836156,0.4177519738933473,0.42802933191343273,0.4128714477830594
0.22017749711834503,0.49099713295045544,0.34383054767444093,0.142218699627309,0.17561419634295525,0.020736331082025508,0.03296548797359991,0.05226214162751946,0.02306280433569412,0.10330514971017928,0.23491575156693226,0.10934387968116584,0.3209293985382849,0.41393748992927404,0.42623093896784403,0.4113334953401139
0.22281525645831693,0.4927982255655426,0.34679126948796457,0.1419010143170933,0.1752031813393535,0.020328969807421042,0.032413073953080476,0.052133551017429614,0.023152899452391882,0.10216346758450918,0.23410157668438974,0.10826359924234007,0.3233447038204455,0.4099984940550878,0.42443711025026004,0.40968765036670624
0.22536211075889098,0.4943921850882408,0.3497958938988641,0.14163663982787178,0.17482318516800724,0.019929718831991478,0.031872044391193115,0.05199049980305808,0.023241710189875947,0.10100498210387798,0.23321396881984846,0.10718647270588517,0.32563188941787335,0.40594312624132944,0.42265371799377405,0.40793719391242556
0.2278149901084869,0.4957756356609461,0.3528380197726139,0.1414272073568018,0.1744758936361331,0.01953871635385702,0.03134243699416274,0.05183324616500594,0.023328587541020948,0.09983020384048798,0.23225355140207668,0.10611420072316757,0.3277878274826041,0.4017799515066069,0.4208860026218465,0.40608491726518137
0.23017105245646802,0.49694578237988807,0.3559112164221589,0.14127413440540776,0.17416272370984984,0.019156072089932474,0.030824239373848594,0.05166212830101076,0.023412911330926135,0.09863973327083321,0.23122119696736998,0.10504852611014458,0.32980972329101266,0.39751774746129503,0.4191387190113414,0.4041329985618151
0.23242756334536435,0.4979006166242779,0.3590090233865685,0.14117863818507112,0.17388481584811538,0.018781867322928067,0.030317395944958272,0.051477570453187474,0.02349409218524225,0.09743430390104545,0.23011810936090485,0.10399116366033896,0.33169492473876927,0.3931652611704507,0.4174163073760829,0.4020830303411976
0.234581746775421,0.49863904889556554,0.3621248971094595,0.14114179386145403,0.17364301408027172,0.018416154127095425,0.029821815422582696,0.051280082298658554,0.02357157048987048,0.09621481053173067,0.228945866617217,0.10294372902074019,0.33344069290249034,0.38873095327062956,0.41572303963796997,0.39993618467137043
0.2366306280032811,0.49916096300071183,0.3652521034905627,0.14116460580027573,0.1734378516007498,0.018058953705884687,0.029337378707779783,0.05107025199179367,0.023644812178277137,0.09498232208486913,0.2277064234652799,0.10190769744922469,0.3350439721987462,0.3842227785305728,0.41406313187397864,0.39769343383827116
0.2385709321699432,0.4994671889072558,0.3683835635007901,0.1412480720626609,0.17326956303654378,0.017710254780548662,0.028863946891692895,0.05084873338469756,0.023713301311564263,0.09373807913098192,0.2264020744513726,0.10088441585983333,0.33650126632216076,0.3796480970618467,0.4124408223394562,0.3953557675036655
0.24039910616961643,0.49955939521578085,0.371511699754555,0.1413932364549515,0.17313812604529868,0.017370014346633572,0.02840136907098958,0.05061622815620495,0.02377652955613962,0.09248347694788082,0.2250353806405735,0.09987515269178208,0.3378087075049542,0.37501375745086857,0.4108604158718457,0.3929243878041716
0.242111454905368,0.49943990577001,0.37462838823511213,0.14160122597787134,0.17304331695226874,0.017038162390071183,0.027949489650119178,0.05037346374097632,0.023833982808477882,0.09122003557657311,0.22360906464141578,0.098881151291143,0.3389622739036621,0.370326269666878,0.40932629652368735,0.3904008754359466
0.24370432333814387,0.4991114482923769,0.3777250769143412,0.14187327217588375,0.17298476640551072,0.01671460969772574,0.027508154808269684,0.050121168064427166,0.02388512659420895,0.08994935888245374,0.22212588020525434,0.09790366774081888,0.3399580458821372,0.3655919673039747,0.40784291106500353,0.3877873203739388
0.24517427336065106,0.4985768459401776,0.38079301097663676,0.14221071563276572,0.17296200854204413,0.016399257109402016,0.027077217828986436,0.04986004215398801,0.02392939572848973,0.08867308505371291,0.22058846380557404,0.09694398903696848,0.34079244093626776,0.36081712616449513,0.4064147265583037,0.38508641184265463
0.24651823783522497,0.4978386684475618,0.3838234715744097,0.1426149936597046,0.17297451988857648,0.016092005376838785,0.026656543025578457,0.04959073319897374,0.023966195091634918,0.08739283125447989,0.21899919547619373,0.09600343174143,0.3414624098245092,0.3560080392587541,0.40504616558003476,0.38230148347142595
0.24773364403404563,0.4968989143792454,0.3868079855310563,0.14308761203709905,0.17302174484311947,0.015792765159517774,0.026246008042768026,0.049313815394441934,0.023994912081874153,0.08611013807855533,0.21736013374077526,0.09508332287496207,0.34196558458283394,0.3511710510721719,0.4037415228771122,0.3794365111873953
0.24881849983738202,0.49575888411225244,0.38973848979101394,0.1436301024555678,0.1731031053546385,0.015501466594460628,0.025845504371459643,0.049029787654005966,0.0240149346299134,0.08482642905722303,0.21567306543359518,0.09418496622879832,0.34230037123936535,0.3463125562326792,0.4025048673371108,0.3764960632546127
0.24977143752868436,0.4944193339362153,0.39260743654564717,0.14424396800814998,0.17321799328789225,0.015218067818050797,0.02545493597596088,0.04873908832268274,0.02402566932816987,0.08354300470473054,0.21393962620546667,0.09330959834773789,0.34246598256210875,0.34143896935887136,0.40133993313693633,0.37348520386682654
0.2505917118176057,0.4928807991126894,0.3954078281543108,0.14493061966831894,0.17336574488117207,0.014942561801554576,0.025074215998723608,0.04844211716653279,0.02402655766369188,0.08226107220682131,0.21216142337461522,0.0924583427626828,0.34246240894047647,0.33655667379959503,0.4002500038285269,0.3704093537374288
0.2512791507491348,0.49114392748431307,0.39813317505942075,0.14569130841213235,0.173545597629975,0.014674980894678148,0.024703261574427347,0.04813925624411856,0.02401708957321054,0.08098179001021678,0.21034013307344845,0.09163217988822595,0.3422903283722905,0.33167195716856696,0.3992377932368264,0.36727411308628477
0.251834060329581,0.4892097628025762,0.4007773746197363,0.14652706726280093,0.1737566308186832,0.01441539855557285,0.02434198685118464,0.04783088717300906,0.023996813627453813,0.0797063085996552,0.20847756695567382,0.0908319471129935,0.34195095935379366,0.32679094107701384,0.3983053414045812,0.364085054182863
0.2522570859171997,0.4870799663951288,0.4033345138575101,0.14743868877800914,0.17399769886461475,0.014163927879161995,0.023990294380244474,0.04751740453657856,0.02396534327890248,0.07843580174506483,0.20657570632130245,0.09005836200008228,0.3414458631076309,0.321919511375608,0.3974539702285798,0.36084749420034523
0.25254903557798425,0.48475696870130214,0.4057986041944639,0.14842674788008484,0.17426738691910157,0.013920716711917115,0.02364806509535387,0.04719922534083652,0.023922358767775334,0.07717148770610428,0.20463670330472764,0.08931204766442447,0.34077670390281195,0.3170632536847191,0.3966843246955558,0.3575662931592156
0.25271067313973944,0.48224404547488536,0.40816329959380426,0.14949164788523306,0.17456402231158485,0.013685939349403308,0.023315148408218814,0.04687679458473269,0.023867604468104264,0.07591464039029272,0.20266285052059635,0.08859354673606419,0.3399449869986483,0.3122273972026741,0.3959964661739653,0.3542457752219652
0.25274252190356494,0.47954531692625135,0.4104217397757804,0.15063366356864852,0.17488574166540813,0.013459785038683997,0.022991356911299395,0.04655058714471358,0.023800881660222872,0.07466659092658756,0.20065652217817048,0.08790332090860206,0.3389518413132462,0.30741676793341655,0.39538997140466103,0.35088982628193843
0.25264478027404963,0.4766656715811928,0.41256663937843824,0.15185297226299035,0.17523058339924313,0.013242444520588072,0.022676469752333513,0.04622110629061821,0.023722036927277115,0.0734287205165084,0.19862009107208245,0.08724173690035285,0.3377979602452483,0.30263575076084215,0.39486402142969496,0.3475020944094939
0.25241741346768765,0.4736106199993028,0.4145905699575244,0.15314967227180154,0.17559658117037225,0.013034099196227396,0.02237024316315123,0.045888879241915564,0.023630946580054046,0.07220244574388654,0.19655582696617938,0.08660904313791037,0.3364837415583159,0.297888258386516,0.3944174798060438,0.3440861931560275
0.25206035539183114,0.4703860865564165,0.41648629055376246,0.15452378874967357,0.17598184948345558,0.012834919931692383,0.02207242342633318,0.04555445023871795,0.02352749770503369,0.0709891977528548,0.19446579089440805,0.08600535006105947,0.3350095336877871,0.2931777041698463,0.3940489597258348,0.3406458705655864
0.25157371994750166,0.4669981501067754,0.41824704154181336,0.15597526803242162,0.17638465770790634,0.012645077514798117,0.021782759437028804,0.04521837163997418,0.02341156796601868,0.06979039683920052,0.19235176331818568,0.08543063110714923,0.33337588117459077,0.2885069759223704,0.3937568797949764,0.3371851383323843
0.25095798143809916,0.4634527463799543,0.41986677373775394,0.15750396213095136,0.17680348918607808,0.012464759080407957,0.02150101404197523,0.044881193571867796,0.02328301086168572,0.06860742404623667,0.19021524724484482,0.08488474782707009,0.331583729957858,0.2838784147309482,0.39353950819731687,0.33370835764814816
0.25021411549656286,0.4597553715534722,0.4213402977447178,0.1591096056771972,0.17723708270424776,0.012294184272172283,0.02122697377355483,0.04454345263398667,0.02314165510006156,0.06744159132172967,0.1880575418711897,0.08436748521409478,0.32963458448114513,0.2792938160589659,0.3933949948027058,0.33022028053474783
0.24934369390133462,0.45591089225050646,0.4226633431781257,0.1607917879869756,0.17768445431284416,0.012133618661270535,0.020960456639449374,0.044205660131739745,0.022987319011927947,0.06629411434748766,0.185879841557781,0.08387858289127473,0.32753061091884295,0.2747544666085673,0.39332139049832476,0.32672604772003777
0.24834892900244138,0.45192356725376276,0.4238325227633014,0.16254992305598362,0.1781448982880894,0.01198338360987164,0.020701317687680035,0.043868290244341177,0.02281983195889241,0.0651660978295918,0.1836833244254296,0.08341775616839639,0.3252746834176353,0.27026120880875226,0.3933166526870175,0.3232311462535837
0.24723266609143266,0.4477972560955694,0.42484520198258435,0.164383220222468,0.17861796688511528,0.01184386196368973,0.020449452141205488,0.04353176846290547,0.02263905533847974,0.0640585407031454,0.18146921940610747,0.08298470490366837,0.3228703729412606,0.26581451747788537,0.3933786355720748,0.31974133194876714
0.24599832476933053,0.4435356906897317,0.4256992805924647,0.16629065792262526,0.17910342940019344,0.011715499199738251,0.02020479598334856,0.04319646054792213,0.022444900621128163,0.06297235573604389,0.17923884935847495,0.08257910914690908,0.32032188096757264,0.261414581557215,0.3935050636094694,0.3162625232714112
0.2446497930300572,0.4391427215373353,0.4263928975702371,0.16827096245928894,0.17960121189351658,0.01159879992591592,0.019967323971601073,0.04286266245359716,0.0222373437228063,0.06190839183611378,0.17699364918528576,0.08220061162487063,0.31763392277873553,0.25706138763303776,0.3936934864278771,0.31280067439063314
0.24319128021800054,0.4346225128345485,0.4269240840078206,0.17032259304274147,0.18011131968237387,0.011494319910045361,0.019737045158331353,0.042530592968181326,0.022016435185047166,0.06086745277001027,0.17473515919993304,0.08184878816523547,0.3148115672815132,0.252754801094703,0.393941213654546,0.3093616357140994
0.24162713708547678,0.42997968070578046,0.42729045324045395,0.1724437335980474,0.18063374536081048,0.011402654088323593,0.019513996097428193,0.042200392008523775,0.021782305821822685,0.05985031108431361,0.17246499521434838,0.08152311300251817,0.31186004208567225,0.24849464028638452,0.39424522848254556,0.3059510103296708
0.23996165445454554,0.42521937156802303,0.42748909672689167,0.17463229102708694,0.1811683656065716,0.01132442124835918,0.019298232010457578,0.04187212528605297,0.021535167690037712,0.05885771715548067,0.17018479790202512,0.08122293833262238,0.30878451386984573,0.24428073894592622,0.3946020794884897,0.3025740176940799
0.23819888163653238,0.42034728041322844,0.4275167642894099,0.1768858988292627,0.18171484171278532,0.011260247547797057,0.019089816269053015,0.04154579241408578,0.021275310437733053,0.05789040346188222,0.1678961648818925,0.08094750632333302,0.3055898737278502,0.24011299258429086,0.39500776045953306,0.29923539062540716
0.23634255238958687,0.4153696114409165,0.427370204014028,0.17920192428466342,0.1822725642477132,0.011210754836360191,0.01888880861708285,0.04122133552411873,0.021003093272215754,0.056949084317957116,0.1656005696385921,0.08069598893755994,0.30228060408642393,0.23599138520449686,0.39545762100583365,0.29593934182583953
0.23439616522401346,0.410292985864149,0.4270465005837472,0.18157747684316422,0.18284067527808934,0.011176560578161585,0.018695253138960387,0.04089864764878349,0.020718932961188156,0.05603445143895227,0.16329928093727225,0.08046753635306302,0.29886079899475587,0.23191599381699524,0.3959463701221627,0.2926896028357206
0.23236315217579015,0.40512430375071573,0.4265433492508819,0.18400941498848306,0.18341815043475462,0.011158289109303773,0.01850916911483826,0.04057758100989232,0.02042328842678325,0.05514716581683141,0.1609933174720001,0.08026132115984433,0.2953343134047371,0.2278869694836595,0.3964681876468687,0.2894894909409163
0.23024704665637025,0.3998705683742362,0.42585925127037094,0.18649434869065146,0.18400389776899254,0.011156587139289735,0.018330549301476064,0.04025795530842513,0.020116642610102972,0.05428784648557157,0.15868346748032003,0.08007657389417035,0.2917049514423068,0.22390449500667378,0.39701689589382716,0.2863419621271138
0.22805161734914395,0.39453868268939385,0.42499362113554895,0.1890286346417165,0.1845968498663303,0.011172137577591107,0.01815936650019911,0.03993956605300681,0.019799482369000674,0.05345705683816104,0.1563703596947412,0.07991260783324207,0.2879766336041193,0.2199687207612877,0.3975861426787848,0.28324963892799915
0.22578096372329753,0.3891352281907776,0.42394680092607884,0.1916083617896528,0.18519604370138842,0.011205669684176469,0.017995584084946815,0.03962219288946093,0.019472279884833434,0.052655289227709505,0.15405454778115107,0.0797688316883028,0.28415352684192186,0.2160796814501545,0.3981695763559334,0.28021481532770387
0.22343957097610975,0.38366626452258507,0.4227199822066201,0.1942293252300773,0.1858006863455741,0.011257965020329287,0.017839166198505448,0.03930560781252566,0.01913548434000765,0.051882950570308214,0.15173658564921166,0.07964474959241673,0.28024013462802133,0.21223719871625726,0.39876100449290947,0.2772394422213996
0.2210323244245108,0.37813724175594055,0.4213150409195666,0.19688699300925264,0.1864102051861284,0.01132985893175517,0.017690086223644503,0.03898958305868981,0.018789529592358332,0.051140355641195644,0.14941708766923611,0.07953994852881904,0.2762413461058505,0.20844079201784455,0.39935452766287804,0.2743250979956395
0.21856448541359483,0.3725530809504332,0.4197342953285173,0.19957648594784308,0.18702428184508732,0.011422237561608234,0.017548333353497314,0.038673898403730346,0.018434852111579678,0.050427732689029225,0.14709677197598145,0.07945407403888924,0.2721624453388111,0.20468964789170013,0.39994464017571674,0.27147294951567735
0.2160416325848243,0.3669183565100821,0.4179802010529541,0.20229259320134574,0.18764286947601616,0.011536030649235064,0.017413917180515683,0.03835834752695288,0.018071910139124923,0.04974523718589751,0.14477648586895897,0.07938679564621635,0.26800908338621926,0.20098267636511247,0.4005262904308407,0.2686837091744835
0.2134695737696189,0.36123748315511495,0.4160550178853643,0.20502982384715096,0.18826619354817276,0.011672200604949164,0.017286870315766763,0.038042743062432514,0.01770120042768529,0.04909296630922071,0.1424572131405204,0.07933776390603234,0.26378721738380545,0.19731862023840765,0.4010948949414993,0.2659575965220643
0.21085423479606763,0.3555148707687478,0.4139605505558411,0.20778247759836493,0.1888947365930007,0.01183172854810908,0.01716724913478573,0.037726919940671934,0.017323271960962422,0.04847097061456277,0.14014006394173847,0.07930656322417673,0.2595030219357837,0.19369616830549527,0.4016463019083174,0.2632943172359236
0.2082015321008709,0.34975504279573,0.4116981054979102,0.210544721677425,0.18952920768493095,0.012015599229463846,0.017055132818124936,0.03741073663546888,0.016938736281959136,0.04787926207526613,0.1378262485011013,0.0792926734340381,0.2551627789066512,0.19011405368973708,0.40217670242801934,0.2606930640644935
0.205517237339958,0.34396271618469604,0.40926869017333734,0.21331066779450789,0.19017049766333263,0.012224790078073424,0.016950620910799297,0.037094073971728994,0.01654827418759477,0.04731781810793487,0.13551703661712172,0.07929546052813767,0.2507727521264431,0.18657113383670343,0.4026824899006611,0.25815252594972055
0.202806859670084,0.33814284254467275,0.40667332460235284,0.21607444441010487,0.19081962128774077,0.01246027047287601,0.01685382966295888,0.03677683121962389,0.016152638679727438,0.046786581397033185,0.13321370533439506,0.07931420284191089,0.2463390536062222,0.18306644967158506,0.40316007080991234,0.2556708916103756
0.20007559877642064,0.33230061175796227,0.40391333479925856,0.21883025920129104,0.19147764767053643,0.012723011218675341,0.016764887433663715,0.036458919296206045,0.015752654193592966,0.04628545554857078,0.13091747757117086,0.07934813569443674,0.24186751527458553,0.17959926246355012,0.403605632644519,0.2532458565795473
0.19732839496721583,0.3264414206996643,0.4009905819222072,0.22157244668189233,0.19214562046704872,0.0130139980551955,0.016683929441317837,0.03614025101289419,0.015349212250579282,0.045814296830746525,0.12862945517659544,0.07939649582554004,0.237363602495135,0.17616906798082405,0.4040149101773436,0.2508746537352444
0.1945700333262814,0.32057081091274603,0.3979076168900684,0.22429549626350576,0.19282446943834156,0.013334243953661508,0.016611092129983487,0.035820728439975844,0.014943263799970689,0.04537290248508585,0.12635055963978664,0.079458559095842,0.23283241006821212,0.1727755885131139,0.40438306509508787,0.24855411286603352
0.19180524632709228,0.31469438004409805,0.3946677544922336,0.22699405668593656,0.19351491779158936,0.013684798455718801,0.016546507393055656,0.035500227600154005,0.014535808621106256,0.04496099831920542,0.12408150979117415,0.07953367030474934,0.2282787358632589,0.16941874423515538,0.4047047720904256,0.246280740423203
0.189038795574374,0.30881767254169196,0.3912750655236679,0.2296629136735004,0.19421740543738147,0.014066753632560013,0.016490296857773805,0.03517858239968078,0.014127882250837106,0.044578232773044846,0.12182285261014834,0.07962126436417001,0.22370718350250596,0.16609860615017086,0.4049744609708998,0.24405081051235594
0.18627553118474693,0.3029460555386308,0.3877342899550004,0.23229693885237465,0.19493206617286063,0.014481246430628645,0.01644256638925292,0.03485557417571887,0.013720540978933427,0.044224183121476315,0.11957502525264958,0.07972087843207311,0.21912225547094816,0.16281533346011345,0.40518659918411315,0.24186046119470783
0.1835204283715735,0.29708458601108567,0.3840506783404584,0.23489100934300267,0.19565877508670299,0.014929457359241356,0.016403400924646077,0.03453093422577987,0.013314845896741865,0.04389837055479252,0.11733841834973988,0.07983215494382662,0.21452842615397866,0.15956909864751706,0.4053359534550809,0.2397057903573488
0.18077860176165786,0.29123789030208436,0.3802297723428,0.2374398989562678,0.19639723706026388,0.0154126056547098,0.016372859840449495,0.03420435914879942,0.012911849600549832,0.0436002769383347,0.11511342969531099,0.07995483577055454,0.2099301944082284,0.15636000381896464,0.4054178129326706,0.2375829450453656
0.1780552988145752,0.28541010756895907,0.37627713821929937,0.23993815319080805,0.19714708081020524,0.01593194121666421,0.01635097360694628,0.03387553197179875,0.012512592246242666,0.04332935939396434,0.11290050697989647,0.08008874797860624,0.20533211611970087,0.1531879957973179,0.40542816354838596,0.2354881981353381
0.17535587441985498,0.27960493219129473,0.372198088087186,0.24237999415435685,0.1979079455218492,0.016488733748711557,0.016337742898995044,0.033544143402749145,0.012118109746123377,0.043085061469223404,0.11070017872251565,0.08023378186408496,0.20073881793286222,0.15005280261040296,0.4053638055018684,0.2334180065821852
0.1726857493023145,0.2738257218666347,0.36799748187808295,0.2447593195412928,0.19867955731950412,0.0170842596426012,0.016333140329995003,0.033209911261206135,0.011729448634990695,0.04286682012851529,0.10851307304920388,0.08038986209692431,0.19615499392771094,0.14695392406693752,0.4052224084228297,0.23136904618214957
0.17005035526819345,0.26807561433587346,0.3636797181417878,0.24706980907809145,0.19946179291341581,0.01771978775011483,0.016337113529516053,0.03287259733581715,0.011347680965439658,0.04267406801825593,0.10633992444531357,0.08055691293846233,0.1915853874707799,0.14389068261303406,0.40500250166500956,0.22933821883589592
0.16745507057663797,0.2623576270436255,0.3592489114567488,0.24930508744372293,0.20025472798024205,0.01839656759259415,0.016349588379627477,0.032532020996864856,0.010973916831395671,0.0425062307113929,0.1041815690507546,0.0807348186036765,0.1870347607703196,0.14086230318680787,0.4047034001951333,0.22732262961928565
0.16490514882930082,0.2566747355668025,0.3547091420057771,0.25145889259771503,0.20105866818370857,0.019115825512767647,0.01637047214132219,0.03218806900540447,0.010609314106998063,0.04236271891137245,0.10203892945796539,0.08092338151142323,0.1825078548320545,0.13786799108326897,0.40432506947632735,0.22531953250870135
0.16240564709249744,0.2510299297914544,0.3500646803725842,0.2535252291782058,0.2018741612225439,0.01987877036448345,0.01639965655442338,0.031840701103643995,0.01025508510232553,0.04224291587580108,0.09991299029994115,0.08112228869803098,0.17800934255177375,0.13490699783692084,0.403867935447681,0.22332624528036585
0.15996137009042033,0.24542624770498567,0.3453201564555546,0.25549849852229495,0.20270198889093893,0.0206866040159613,0.016437020975733418,0.03148995113771173,0.009912499965964409,0.04214616077783938,0.09780476617181051,0.08133110353221601,0.1735437776103512,0.13197867383960077,0.40333264802670693,0.22134003581516287
0.15757685682540348,0.2398667874955056,0.34048066659819326,0.2573735974874631,0.20354313882910388,0.02154053153524572,0.016482435592627284,0.03113592364603004,0.009582886801686015,0.0420717322728838,0.09571526360927902,0.08154928850517133,0.169115541673559,0.12908250692426995,0.40271980839614535,0.2193579925076427
0.15525641634428278,0.23435469938639092,0.3355518166909319,0.2591459793225487,0.20439875639560004,0.02244176922344217,0.01653576471443855,0.030778786035186273,0.009267628606233676,0.04201884242668595,0.0936454389494259,0.081776245022916,0.16472879216224554,0.12621814664591524,0.40202969156397067,0.21737692475585227
0.15300418740303612,0.22889315926170375,0.3305397026396514,0.2608116713210166,0.2052700778703207,0.023391550110975438,0.016596870103940103,0.03041875665094112,0.008968157270575093,0.04198664751145488,0.0915961539260319,0.08201135436107522,0.16038741739148554,0.12338541446456568,0.40126205451302943,0.21539335989425576
0.15082419548437775,0.22348532664237242,0.32545083300986566,0.26236724583572485,0.20615834695533858,0.024391126632586208,0.01666561426853247,0.030056089225276642,0.008685945010989824,0.0419742697498985,0.08956813643517209,0.0822540140520837,0.15609501569086998,0.12058430047068305,0.4004161339946571,0.2134036523331854
0.14872039854123728,0.21813428994530126,0.3202920016458138,0.26380974336823243,0.2070647172383566,0.025441770303281604,0.016741863588322317,0.029691054332056283,0.008422493702405328,0.04198082059804692,0.08756196459227295,0.08250366837676877,0.15185491001716603,0.11781494767964773,0.3994908296903462,0.21140415092340972
0.1466967206739523,0.21284300219473368,0.3150701204632078,0.2651365487714776,0.20799014543482858,0.02654476832737123,0.016825491119249268,0.029323918605953413,0.00817932266866555,0.04200542157934193,0.08557808481475639,0.08275983177219426,0.14767018665118425,0.11507762525129042,0.3984849642992416,0.20939136884882933
