EMG01_right_gast_med,EMG02_right_glut_max,EMG03_left_gast_med,EMG04_left_glut_max,EMG05_right_glut_med,EMG06_right_bic_fem,EMG07_right_rect_fem,EMG08_right_vast_lat,EMG09_right_vast_med,EMG10_right_tens_fasc_lat,EMG11_left_glut_med,EMG12_left_bic_fem,EMG13_left_rect_fem,EMG14_left_vast_lat,EMG15_left_vast_med,EMG16_left_tens_fasc_lat
0.057229203372707343,0.02876149143958993,0.051872568214410365,0.017784122453886872,0.0009893340097197674,-0.01921927206602736,-0.002402908664566809,-0.015430533404286321,-0.021800046157408312,-0.01019340609810447,0.012610701263166477,0.013857978594549588,0.03144168063680637,-0.0010112399449993612,0.07347108743893574,0.014035520755093874
0.059827045595630894,0.02892630173441043,0.055530221001460676,0.018580533091417367,0.0012499874962792934,-0.018001150063124232,-0.0004575464422103964,-0.014013945837701911,-0.019251251421608155,-0.007565991889930195,0.013249820880569765,0.019318175259971492,0.03499675914128765,-0.0006674973103381011,0.07396567322622696,0.014484000544700004
0.06242388525022612,0.029089697195187746,0.059232120683411056,0.01938630975865181,0.00153221845301248,-0.016794374218493672,0.0015050265177273883,-0.01261605246091039,-0.016734704640943402,-0.004927476573138478,0.013902904937374878,0.024752544274848142,0.03861259055386984,-0.0003202205093630375,0.07448797060870793,0.01494319466610428
0.06501358331942647,0.02925138057519794,0.06297637184497537,0.020201350728944547,0.0018366699632243312,-0.015600971357440138,0.00348319778488589,-0.011239355281147544,-0.01425473369206402,-0.0022801499433557615,0.014569860753762116,0.03015132867967514,0.042287347002049606,3.0304658882951095e-05,0.07503864906607512,0.015413283562447045
0.0675904769419943,0.029411059211281548,0.06676102237982807,0.021025535646240105,0.0021640290578628174,-0.014422822621643022,0.005475437578016286,-0.009886207097865533,-0.011815449600399265,0.00037380981095962076,0.015250595005516277,0.03550527649450573,0.04601926223654458,0.0003838372541612591,0.07561825536866087,0.015894429306024527
0.07014955060340917,0.029568450021419553,0.07058405368668254,0.021858724876371704,0.0025150321691525955,-0.013261627308069322,0.007480326697642204,-0.008558774500446467,-0.009420673340056916,0.0030323821932247666,0.015945019557795596,0.04080581263724901,0.04980666410466041,0.0007401985269758994,0.0762272024039607,0.016386771826271792
0.07268650744535503,0.029723285085138346,0.07444336039881488,0.022700754605561285,0.0028904645926487865,-0.012118880010995724,0.00949657519140502,-0.007259011198133698,-0.007073878296052517,0.005693745272179162,0.016653050948285546,0.0460451351817599,0.0536479894453545,0.0010992841561677325,0.07686577207396678,0.016890432627442335
0.07519774606111343,0.02987531632210797,0.0783367293886073,0.023551433974483903,0.0032911557077439477,-0.01099586010585643,0.011523031622430931,-0.005988641509945496,-0.004778152900736471,0.008356305986899243,0.017374602880787078,0.05121623843678322,0.05754178370849537,0.0014610698117201134,0.0775341217133953,0.01740552248832622
0.07768025817834291,0.030024318004281667,0.08226183711340235,0.024410555353919377,0.003717971464967065,-0.009893632037953634,0.013558683101112513,-0.00474915378588827,-0.0025361826562271517,0.01101871883028194,0.018109575064965956,0.05631286798505781,0.061486687608102615,0.001825610502306808,0.07823228794112183,0.0179321500107448
0.08013146616477046,0.030170086063181834,0.08621627598688021,0.0252779168494245,0.004171805495980554,-0.008813054622145934,0.015602646627744025,-0.003541803270869131,-0.0003502502615321959,0.013679892411264893,0.01885784619470866,0.06132941474121956,0.06548141331144078,0.0021930343489572,0.07896018822812419,0.018470430326454956
0.0825490281132509,0.030312433442849118,0.0901976014816036,0.02615334848286747,0.004653570009999333,-0.007754797390134097,0.01765415265729575,-0.002367623637310605,0.001777747904326284,0.01633898398636428,0.019619277918668014,0.0662607571553585,0.06952471271084747,0.002563531602551858,0.07971762225039487,0.01902049406648235
0.08493066956607472,0.030451181138208248,0.09420338644618326,0.027036736094061244,0.005164187317047573,-0.006719362117656993,0.01971252202471447,-0.0012274462322118393,0.003846270866661469,0.01899538256361889,0.020393727985364395,0.0711020670008593,0.07361533999667923,0.002937339803423536,0.08050427468118508,0.019582496455012775
0.08727412627587683,0.03058614491841361,0.0982312749793004,0.027928040172984673,0.00570458254585022,-0.005707107761291615,0.021777137566480628,-0.00012192587734392338,0.005854089856441739,0.021648681654664076,0.021181065916993227,0.07584863126741183,0.07775201043847156,0.0033147265176084835,0.08131972062250944,0.02015662617246031
0.08957722141931687,0.03071711848734563,0.10227903088483152,0.02882730777905702,0.006275677896600655,-0.004718277147450563,0.02384741191898987,0.0009484281386258869,0.0078002352131998475,0.024298643145538742,0.021981187135244,0.08049578826699287,0.08193335771961283,0.003695974027253343,0.08216343439797515,0.020743113460299334
0.0918380029306497,0.03084385769002362,0.10634457558974583,0.029734676413182747,0.006878388521385847,-0.003753023982561981,0.025922755931297642,0.001983217349312708,0.009683935861052399,0.026945154023971254,0.02279402418549929,0.08503902434943966,0.08615789695936533,0.004081373700253582,0.08303480187040865,0.021342236809964846
0.09405486073697855,0.030966075595160705,0.11042601061468417,0.03065036940136011,0.007513619907451002,-0.002811439012272385,0.028002558673427443,0.002982117209339105,0.011504553861772895,0.029588177859946815,0.023619554383210048,0.08947416065768816,0.09042400676889363,0.004471233292342518,0.08393313591630161,0.02195432752051309
0.09622659723700838,0.031083453996269078,0.11452162023793554,0.03157468294719934,0.008182266476455301,-0.0018935734220663306,0.03008618811253031,0.003944843124152641,0.013261521993714992,0.032227705131492014,0.02445780344429779,0.09379753705413124,0.09472993636261007,0.00486589115077027,0.0848576942516999,0.022579771438335006
0.09835244982538459,0.031195665265214754,0.11862985087492448,0.03250796555401576,0.008885210984837131,-0.0009994550638354107,0.03217300771923239,0.004871131782170216,0.014954304972072714,0.034863714328684854,0.025308844893432016,0.09800615541297363,0.09907382756120289,0.005265729877001688,0.08580769844868794,0.023219007294303366
0.10043206806050911,0.03130239571676366,0.1227492648746907,0.03345059097933752,0.009623324229573661,-0.00012909309611755258,0.03426239703202956,0.005760746197018303,0.016582402304054722,0.037496160291878564,0.026172795258472104,0.10209777226982794,0.10345373920224486,0.005671186663205753,0.08678235273262662,0.02387252122049471
0.10246545112106097,0.03140336674052413,0.12687846787853282,0.03440292739308713,0.010397464551134234,0.0007175273182918846,0.03635376931833002,0.00661349649393962,0.018145384377714194,0.040124992394274334,0.027049805237501022,0.10607093414517776,0.10786766979954254,0.006082759802241251,0.08778086103327516,0.024540837247188182
0.10445285344166545,0.03149835251235477,0.13101601613979086,0.035365311187466775,0.011208476675668932,0.0015404535854082492,0.038446584621472484,0.007429262681199785,0.019642937826032273,0.04275018686671996,0.027940047173265002,0.10992495272874554,0.11231357797564663,0.006501011122993847,0.0888024407607052,0.0252245038249491
0.10639466783451966,0.0315871932162884,0.1351603359887285,0.03633803895875584,0.01205718954276345,0.0023397728146905146,0.04054035765853297,0.008208013140330095,0.021074905498849703,0.04537177812102985,0.028843699291700962,0.1136598212626556,0.11678940000811132,0.00692656435187038,0.08984633187039658,0.025924076659536863
0.10829130079195895,0.03166980288118907,0.1393097100216628,0.03732138217729899,0.012944413286349299,0.0031156166119131723,0.04263466023427903,0.008949817823146546,0.02244131731698334,0.04798988414386718,0.029760927251570906,0.11727607751564462,0.12129306360957429,0.007360099625222123,0.09091179995970469,0.026640099143203522
0.11014307342551585,0.03174617115671935,0.14346235157243206,0.03831561352713173,0.013870936692699603,0.00386816385100386,0.0447291180427204,0.009654855974857057,0.023742411105873718,0.050604725160989,0.030691865578658363,0.12077462236900698,0.12582249684556182,0.00780234456721934,0.09199813237785025,0.027373085656356058
0.11195019196428191,0.03181635861154473,0.1476165298316404,0.03932103235060923,0.014837526782496772,0.004597641746034077,0.04682340193965494,0.01032341845631981,0.024978642923170688,0.05321663500531741,0.03163660621662633,0.12415651521054447,0.130375630927886,0.008254062502256855,0.09310462661069957,0.028123516863502018
0.11371279395384971,0.03188048542519388,0.15177069876514226,0.04033798443826144,0.01584493065310921,0.005304325521039878,0.04891721398012245,0.010955904970178844,0.02615068682932939,0.05582606485213041,0.032595200784228714,0.12742280674920578,0.13495039553988425,0.008716038490038993,0.09423057050667394,0.028891850659714877
0.11543102610501214,0.0319387136539435,0.15592360801159802,0.04136687499725133,0.01689387832544217,0.005988536942123025,0.05101026871258215,0.011552816694792781,0.027259424483254545,0.05843357920865508,0.03356767426793229,0.13057449624349796,0.1395447053820833,0.009189064863434192,0.09537521423137466,0.029678542139779978
0.11710511154303804,0.031991223568203435,0.16007438553088083,0.04240817399851433,0.017985085431527933,0.006650641945711387,0.05310227039429516,0.01211474498984109,0.028305925357948385,0.06103984426234814,0.034554042661030425,0.1336126331682491,0.14415643679469423,0.00967393066185759,0.09653773416784284,0.03048406463231093
0.11873539373390826,0.03203818655924167,0.16422258317038071,0.043462413513092796,0.01911925507445107,0.007291047572968202,0.05519288692654446,0.012642356952808409,0.029291418742198472,0.06364560889979459,0.03555432995157986,0.13653848552056622,0.14878339361976217,0.010171419919743359,0.0977171922844536,0.0313089287912504
0.12032235707864629,0.032079743761366145,0.16836817866465295,0.044530177082905936,0.02029707837028082,0.0079101984007501,0.05728172260224344,0.013136378673134047,0.030217259002564695,0.06625167890346345,0.03656858311382075,0.13935369404780767,0.15342326189617447,0.010682318483717769,0.09891250504847145,0.03215369898802231
0.12186662559117682,0.03211600399321417,0.17251153069370176,0.04561208160559697,0.02151923327435811,0.008508572639505774,0.05936829630241598,0.013597577050986714,0.031084885809785856,0.0688588850143316,0.037596884465726094,0.14206038414589933,0.1580735535078839,0.011207423898454447,0.10012244214594875,0.033019006358891205
0.12336894215129794,0.03214706466258024,0.17665328721402387,0.04670875262154719,0.022786381436000886,0.009086678042751444,0.06145203460805932,0.014026741023171784,0.031895781175095256,0.07146804571368516,0.038639360796543704,0.14466123097159247,0.16273154800706055,0.011747553848580628,0.10134565996039355,0.033905557991376845
0.12483013152447431,0.03217304478237673,0.18079425100255733,0.04782079425007547,0.0240991630029944,0.009645047737859977,0.06353228182738378,0.014424663270845416,0.032651428067640195,0.07407992572778171,0.039696188731151744,0.14715947689365827,0.1673942608976518,0.012303551715359554,0.10258075442465833,0.03481414187239984
0.12625105067400855,0.032194118530082576,0.18493521533571053,0.04894875897912913,0.025458189491871785,0.010184236044620085,0.06560831868621077,0.014792125413008016,0.033353282824364894,0.07669519606778556,0.04076759588698135,0.1495589037903706,0.1720584618370628,0.01287628897285413,0.10382631753867652,0.03574562735949946
0.12763252990423982,0.032210544832371575,0.18907681675726112,0.050093130525137454,0.026864035472500665,0.010704814300907105,0.06767938148565476,0.015129891870615506,0.03400277337648202,0.0793144114023171,0.04185385749604334,0.15186376558244696,0.17672073156727516,0.013466664338859336,0.10508099148123512,0.036700961065315285
0.12897530814135957,0.032222691427142354,0.19321948689879065,0.05125432991961848,0.02831723139466715,0.011207366670758862,0.06974467901829598,0.015438714007080816,0.034601319837839234,0.08193801672155596,0.04295528830781439,0.15407868853825557,0.18137753138610374,0.014075599783015681,0.10634351789234599,0.03768115815692685
0.13027996928724542,0.03223105208387057,0.19736353713431187,0.05243273829995616,0.029818260512689147,0.011692485876964124,0.07180340672626907,0.01571933938511104,0.03515036222432956,0.08456637501015406,0.04407222975306591,0.15620854816528457,0.18602527177976796,0.014704033663977219,0.107612779863725,0.03868728916210434
0.1315468978202892,0.03223625597071193,0.201509314001541,0.053628722542476505,0.03136756021488249,0.01216076878460267,0.07385475761580525,0.015972520506546347,0.035651384554467584,0.08719979956828272,0.04520503252563571,0.15825833188464764,0.19066037578348674,0.015352911408687232,0.10888783424586476,0.03972046244605256
0.13277627408462242,0.03223906852675929,0.2056573487572806,0.05484265636121957,0.03296552497242447,0.012612811767329176,0.07589792944808316,0.01619902133179886,0.03610593248424137,0.08983858294716884,0.046354034918881785,0.16023299625936635,0.1952793333042637,0.016023174255257653,0.11016793207425178,0.0407818025825282
0.13396810765692602,0.0322403836095966,0.20980847099189925,0.05607493473790857,0.03461250823587918,0.013049205813880922,0.07793212771715895,0.01639962164478601,0.036515624174172395,0.0924830203944002,0.04751953746071249,0.1621373393539514,0.19987874264363514,0.016715747897455044,0.11145252524106097,0.041872424904413966
0.1351222863754665,0.03224120711811095,0.21396387937561723,0.05732598052817331,0.03630882220332078,0.013470531373430844,0.0799565639188657,0.01657511941021443,0.036882154418323404,0.09513342646833202,0.04870177835443078,0.16397593268040697,0.2044553356372684,0.017431535594183013,0.11274125799086844,0.042993408672561156
0.13623862296069883,0.03224263271322468,0.21812516590269346,0.058596242441950754,0.03805473509395569,0.013877352986944152,0.08197044862822836,0.016726331328122707,0.03720729237517506,0.097790143692339,0.04990092184666078,0.16575313963638405,0.20900598320034863,0.01817141930612579,0.11403394238941011,0.044145777742187996
0.13731689343458497,0.032245810649812384,0.22229429340045,0.0598861840001527,0.03985046575415508,0.014270214237922022,0.08397297895421285,0.016854091826477836,0.03749287351441953,0.10045354241299972,0.05111706785313663,0.16747318782996362,0.2135276786418836,0.01893626664125335,0.115330517583991,0.045330500118006246
0.1383568654754777,0.03225191106872977,0.2264735293083584,0.0611962635132182,0.04169617563989646,0.014649634571056532,0.0859633200429378,0.016959250748718725,0.037740786619027245,0.1031240113919089,0.05235027578421284,0.1691402453991355,0.2180174968851489,0.019726938649398194,0.11663099341485277,0.04654850758700837
0.13935831473664365,0.03226208863494544,0.23066534157429208,0.0625269055953188,0.04359195908818117,0.015016109253594147,0.08794058046176383,0.017042669993077433,0.037952956848446316,0.10580193907949244,0.05360059096153107,0.17075848122854698,0.22247252869028608,0.020544295642554316,0.11793537971236964,0.04780072557898908
0.1403210271723646,0.032277466150811916,0.23487226476926543,0.06387846866319394,0.04553783494456303,0.015370111724847422,0.08990378151857059,0.0171052193483627,0.03813132597055889,0.10848768596371286,0.05486806884256695,0.1723321078110618,0.22688979009037308,0.02138920010564595,0.11924360731420545,0.049088104418477455
0.14124478563074094,0.03229914918677177,0.23909674604907916,0.06525122260751916,0.04753374338669077,0.01571209657514762,0.09185182380961626,0.017147771750533936,0.03827783090621704,0.11118154882458031,0.056152795811586505,0.1738654077832169,0.23126610861145724,0.022262516170208968,0.12055546396186713,0.05041164868682451
0.14212933943952555,0.03232826115572283,0.24334099202492124,0.06664535243039393,0.04957954835643485,0.016042502209704754,0.09378346322681598,0.017171198159300474,0.03839438170528013,0.11388371812351793,0.0574549053137736,0.1753627455191461,0.2355980088779315,0.023165105297375296,0.12187058175726065,0.05177244325988517
0.14297435645565382,0.032365981186183584,0.2476068644992813,0.06806098724053175,0.051675042228587376,0.01636175303297949,0.09569731157862763,0.017176362227049234,0.03848284127254143,0.11659423299369606,0.058774588185384925,0.17682856534841956,0.23988166102401137,0.024097818040155296,0.12318848773762235,0.05317167452117089
0.14377936114794465,0.03241357732822148,0.2518958694925102,0.06949823984318357,0.053819949478742087,0.01667026117865314,0.09759186299483286,0.017164114905750944,0.03854501223102253,0.11931294745750623,0.06011209617641807,0.17826737802237233,0.2441129377253706,0.025061482628027668,0.12450868861524471,0.054610645264667836
0.1445436793061053,0.032472433569471604,0.2562092243529343,0.0709572449426505,0.0560139278905789,0.016968427856423416,0.09946553315555072,0.017135289112587333,0.03858263574544022,0.12203952464019965,0.06146773787936029,0.17968373703524715,0.24828754634989977,0.026056894320961393,0.12583075749129932,0.056090781909126884
0.14526642779720197,0.03254406966803091,0.26054794518004026,0.07243819106688443,0.05825656659146309,0.01725664441903328,0.10131669996844948,0.01709069455294643,0.038597399963182705,0.12477345993323492,0.06284186656854857,0.18108220634525998,0.2524011771793824,0.027084812628353428,0.12715441020679222,0.05761363285369628
0.14594656725448896,0.0326301531491756,0.26491291555681734,0.07394134354814517,0.06054738041896767,0.01753529326754785,0.10314374120161153,0.017031113137595578,0.03859095081372267,0.12751411721035769,0.0642348598133198,0.18246732096269586,0.25644964207092574,0.028145969692138513,0.1284795676397229,0.05918085711299751
0.14658299227840954,0.03273250316793579,0.2693049280529387,0.07546705619262797,0.06288580040071344,0.017804748709230957,0.1049450668168848,0.016957296278648816,0.038564900375723896,0.130260764150151,0.06564709114135878,0.18384354179806536,0.26042899576400635,0.029241085461816564,0.12980640083569336,0.060794202770098095
0.14717462500677694,0.03285308629198503,0.2737247003277499,0.07701576975840882,0.06527116048011516,0.018065377861904482,0.10671914378440472,0.016869965227025746,0.03852083172274876,0.1330126019271601,0.06707889447696833,0.18521520610953174,0.2643356323063911,0.030370883796124924,0.131135356611074,0.062455475263213704
0.14772049590113961,0.03299400459300653,0.2781728697225475,0.07858799602529387,0.06770268302392521,0.01831754166404325,0.1084645113320387,0.016769813868558345,0.038460300320215156,0.13576878789695979,0.06853052717339508,0.18658647486547653,0.26816634977175996,0.03153610676768438,0.1324671621528128,0.06416649605558203
0.14821980418721842,0.03315747673578881,0.28264997168360895,0.08018428705522551,0.07017946998259386,0.018561596003943404,0.11017978489586056,0.016657512314212645,0.0383848322162255,0.13852845011256842,0.07000214838665164,0.18796127834569334,0.2719183775616339,0.032737525919986035,0.1338028081081657,0.06592905498531479
0.1486719511434744,0.03334581301136254,0.28715640805395454,0.08180519016362053,0.07270050457112966,0.018797892926886814,0.11186364748173512,0.016533710258853602,0.03829591942800366,0.14129069272163808,0.07149382742015929,0.18934326259140583,0.2755893620840865,0.033975949299114606,0.13514351065788044,0.06774486997484606
0.14907654094782508,0.03356138546476045,0.2916924111571955,0.08345119456013124,0.07526465970658243,0.019026781819670165,0.11351482770619527,0.016399039878682728,0.03819501306600668,0.14405459150920547,0.07300557596853381,0.19073574631054635,0.2791773084173576,0.035252223226112156,0.13649065404393018,0.06961557689539627
0.1494333460032404,0.03380659441356032,0.2962580087164757,0.0851226906909144,0.07787070642299544,0.01924861041210126,0.11513206443017994,0.016254118241203402,0.0380835148502783,0.14681917908164377,0.07453738695435981,0.1921417048773152,0.2826804776150074,0.036567227991998186,0.13784571592643083,0.07154275783511323
0.1497422364008696,0.03408383424092903,0.30085299314666664,0.08681996991518495,0.08051731882408728,0.01946372538182828,0.11671405859663637,0.01609954921186552,0.03796276787876772,0.1495834194502714,0.07608926946547281,0.19356378658165743,0.2860972414949416,0.03792186694661748,0.1392101787279493,0.07352799044424184
0.15000307618595804,0.03439546713890543,0.305476896845503,0.08854326869753991,0.08320307408157994,0.01967247231016928,0.1182594138089893,0.01593592485390723,0.03783404868010807,0.15234617208278647,0.07766127612429963,0.1950043454747485,0.28942589897412696,0.03931704881109406,0.1405854336056886,0.0755728979400716
0.15021561021817942,0.03474381707269787,0.31012897305002146,0.09029283405007642,0.08592644625052459,0.019875194720668423,0.11976657789806774,0.015763826330499164,0.03769856396016415,0.1551061458554178,0.07925352070114872,0.1964654738108007,0.29266448389142163,0.04075366346155237,0.14197269984899227,0.07767919133995649
0.1503794066055917,0.035131186077367565,0.314808179885235,0.0920689877570701,0.08868579308030267,0.02007223194559432,0.12123381738254246,0.015583824328651958,0.037557453207989366,0.15786184594016792,0.0808661842409658,0.1979490289090563,0.2958106520835331,0.04223255631132198,0.14337299895602912,0.07984870090595217
0.15049390629312853,0.035559881063058726,0.319513163648317,0.09387218014237962,0.09147933684578587,0.02026391561155186,0.12265924651813977,0.01539647903046865,0.037411793883766975,0.1606115279394075,0.082499508592844,0.19945665466870063,0.2988617291271121,0.043754515913438055,0.144787197944043,0.08208339423285865
0.15055855108667252,0.036032239550837036,0.3242422363210653,0.09570302934337063,0.09430514630591837,0.020450564612114114,0.12404089269807396,0.015202339658495984,0.03726260541934084,0.16335318495507498,0.08415377698403825,0.20098979845115883,0.3018148933352487,0.04532028563577468,0.14621608959909282,0.08438537908683309
0.15057292569801228,0.036550650566119273,0.32899334189216806,0.09756234276115101,0.09716113219585859,0.020632478536848766,0.12537676814403947,0.015001943618884354,0.03711085075468934,0.16608457870697724,0.08582928212047745,0.20254972443611527,0.3046674037387163,0.04693059199312472,0.1476604719383421,0.08675688997553321
0.150536879106781,0.03711757014970204,0.33376400633651127,0.09945111830375852,0.10004506172947178,0.020809930204891195,0.12666493536386547,0.014795815260728243,0.03695743537806441,0.16880329703070607,0.0875262831660157,0.2041375247863277,0.30741681514850017,0.048586175802568236,0.14912121315637897,0.0892002584503764
0.1504506141770623,0.03773553118272632,0.3385512675882498,0.1013705241731524,0.10295458467945874,0.020983159961427494,0.12790356314186566,0.014584464265072797,0.036803204027497746,0.17150681554617378,0.089244956819199,0.20575412996280065,0.3100611604713818,0.05028781964279265,0.1505992994210084,0.09171786823293124
0.15031473932400838,0.038407147459309274,0.3433516004946269,0.10332185720402981,0.10588726105626012,0.02115237548407293,0.12909097016204577,0.01436838367562489,0.03664893619480112,0.17419255430926933,0.09098535868341628,0.2074003192783254,0.3125990894162968,0.05203636930926719,0.15209586370136047,0.09431209733128423
0.15013027879779542,0.039135112170411435,0.3481608875940498,0.10530648107037271,0.10884058519194012,0.021317757878816554,0.13022565380535306,0.014148047587670295,0.03649534362941255,0.1768579261076746,0.0927474163554044,0.20907673225429368,0.3150299544382684,0.05383274729055069,0.15361219469502835,0.09698525379026716
0.14989864108437273,0.03992219117647357,0.35297447702191864,0.10732574695678196,0.11181200323956696,0.021479471028536028,0.13130630218713438,0.01392390852339222,0.036343072877427086,0.17950037314620304,0.09453095720960536,0.21078388058069256,0.31735383710002,0.055677956765106125,0.15514972582481823,0.0997395246431897
0.1496215477796545,0.040771211636246064,0.3577873078554514,0.1093809121446132,0.11479892127938282,0.021637671129956307,0.1323317880941963,0.013696394923821381,0.03619271223416869,0.18211738913706665,0.09633575098758396,0.2125221595453903,0.3195715108878491,0.05757307524742105,0.1567100051530331,0.1025769639058321
0.14930092786508078,0.0416850467167562,0.3625940593612632,0.11147309738458394,0.11779870164260002,0.021792515176643386,0.1333011441334286,0.013465910057218781,0.036044800173075604,0.1847065242671863,0.0981615477883279,0.21429185681654103,0.32168433975198346,0.05951923774621234,0.15829464787014996,0.10549952305524911
0.1489387844225072,0.04266659722653859,0.36738930182098156,0.11360331405735914,0.12080864569853021,0.021944167869856167,0.13421351911052185,0.013232833424799861,0.03589983329664948,0.1872653711456819,0.10000810395128043,0.21609315558862663,0.32369411507397206,0.06151761007089522,0.15990527372332766,0.10850909943489902
0.14853705566299988,0.043718771084666756,0.3721676379004685,0.11577254079775344,0.12382596215560816,0.022092806503231605,0.13506811641127034,0.012997524077618703,0.035758273117790985,0.1897915306158315,0.10187519345783219,0.21792612850979326,0.32560283719787364,0.06356935366168616,0.16154343234018462,0.1116075789285811
0.14809752603817092,0.04484446155812273,0.3769238225716172,0.1179818083662873,0.12684772199945402,0.022238623462981166,0.13586411594650283,0.012760324457394953,0.03562055132891107,0.1922825572134148,0.10376260350245403,0.21979071864938754,0.32741245193080626,0.06567558477875164,0.16321052020913085,0.1147968644472217
0.14762184063196004,0.04604652516951391,0.3816528496383907,0.120232271799611,0.12987081283284457,0.0223818261058688,0.13660058844317063,0.012521563990103275,0.0354870733262628,0.19473588502708378,0.10567011407333837,0.2216867041427258,0.32912459707409475,0.06783733748101566,0.16490770434018903,0.11807888834635889
0.14711160832455406,0.04732776045450122,0.3863499940588689,0.12252526359404425,0.13289192262452576,0.022522633915009242,0.1372764322991885,0.01228156218708605,0.03535821986322621,0.19714874021739373,0.10759746264094884,0.22361364409075493,0.3307404931279821,0.07005554766791733,0.1666358870630006,0.12145560807103002
0.1465685316090168,0.048690890714092286,0.39101080148141315,0.12486232415503216,0.13590757239511897,0.022661272980733643,0.13789037288674774,0.01204063109891536,0.03523434680166012,0.19951806733538388,0.10954429627401897,0.2255708088074854,0.3322610629279629,0.07233106582003472,0.16839573163024027,0.12492898553476656
0.1459945202464861,0.050138555821298655,0.39563101959990793,0.127245207137202,0.1389141827924779,0.02279796800282802,0.1384410298697097,0.01179907699155832,0.03511578301054696,0.20184051507299283,0.1115101206706413,0.22755711833448755,0.333687194081248,0.07466468505456628,0.1701877231432192,0.12850095188493052
0.14539177623998778,0.05167331418362499,0.4002064698460747,0.12967585889185979,0.14190814920976863,0.02293293215350074,0.13892701771935076,0.011557201152008444,0.03500282652422178,0.20411249904577272,0.11349426951080326,0.22957113351674624,0.33502001170604495,0.07705716768241729,0.17201222867067884,0.13217336030189406
0.14476284712168402,0.0532976492682344,0.4047328622525701,0.13215637291479382,0.14488591368334414,0.02306635565685207,0.1393470464649893,0.011315299779303255,0.03489573911891166,0.20633030933026167,0.11549591255331366,0.23161111990660918,0.336261107237399,0.07950926401226796,0.17386954232714158,0.1359479302539301
0.1441106464908406,0.05501397497150299,0.40920557141721214,0.1346889218186682,0.14784402876033112,0.023198396083826976,0.1397000100906202,0.011073662973263695,0.03479473949819825,0.20849022401351633,0.1175140916376347,0.233675156400744,0.3374127105063093,0.08202172240537041,0.17575991233038418,0.1398261913087059
0.14343844259516347,0.056824638214783556,0.41361944437678977,0.13727567081319525,0.15077920850906337,0.02332917545438562,0.13998505771802888,0.010832572892759344,0.03469999529852251,0.21058861266729306,0.11954775944879352,0.23576125154142574,0.3384777953217257,0.0845952901773268,0.17768354790312046,0.14380944444227353
0.14274981741647547,0.058731918945078274,0.41796875723689525,0.13991868319118528,0.15368836207480294,0.023458786024956792,0.14020164330119778,0.010592301212503551,0.034611615361776364,0.21262202357063076,0.12159580652509432,0.23786745059696773,0.33946011249173536,0.08723070551777093,0.17964060495485415,0.14789875573524144
0.14204860012362458,0.060738027815513775,0.4222473633032821,0.1426198470353292,0.1565686056736082,0.02358730063997126,0.14034955043712172,0.010353106056813837,0.034529646289426105,0.21458724872272264,0.12365707204996318,0.23999192605739889,0.3403641484009307,0.08992868112859026,0.18163115073816963,0.15209497467458025
0.14133877983382634,0.06284510189084515,0.4264489450685489,0.14538086041973278,0.1594172496775885,0.02371478278511571,0.14042889004767434,0.010115229051923484,0.03445407629757395,0.21648136123995584,0.1257303367378854,0.2421330449315726,0.34119501165150984,0.09268988074258991,0.1836551090587819,0.15639875570393552
0.14062440334446955,0.06505519876887143,0.43056726668285106,0.14820327876849596,0.16223175847559118,0.023841294463222723,0.14044007005285122,0.00987889401923153,0.0343848443483368,0.2183017206456219,0.12781429756386337,0.24428940744213373,0.3419582545793612,0.09551489005701613,0.18571219059003144,0.16081056963904325
0.13990946394943143,0.06737028953148382,0.4345963855442988,0.15108858803404487,0.1650096820819165,0.02396690140898812,0.14038373766025625,0.009644308347918084,0.0343218507222884,0.22004594284843393,0.129907525583313,0.24645985324319586,0.3426596403727215,0.09840418388425602,0.18780182689893313,0.16533070178464737
0.13919780097706347,0.0697922509413337,0.43853081063892824,0.15403826984299337,0.16774855997918672,0.024091675290979653,0.14026069644357722,0.009411666113552479,0.03426496733641617,0.22171183325074384,0.13200841632343868,0.24864343298966948,0.3433048697717469,0.10135809268069504,0.18992314477282293,0.1699592369763072
0.13849305434599443,0.07232285728411977,0.4423655984951039,0.15705384702610026,0.17044581012239807,0.024215692705475158,0.14007180186872173,0.0091811513054953,0.03421404743040955,0.22329728338073898,0.13411515912261363,0.250839344851462,0.34389931814816477,0.10437677576778974,0.19207499904159342,0.174696032911329
0.1377986989742091,0.07496377222418618,0.44609638113041633,0.1601369072596109,0.17309864945785575,0.024339030940150296,0.13981784715072834,0.008952940402934803,0.034168934317610165,0.22480013361957277,0.13622574931380266,0.2530468373149992,0.3444479034044413,0.10746020999888589,0.194256037349814,0.17954068418425206
0.13711812495796324,0.07771654099419469,0.44971932389406055,0.16328910402376723,0.17570410368181116,0.024461760668407405,0.13949947632976853,0.008727204158931997,0.03412946889231504,0.22621802544093414,0.1383380356192339,0.2552650813090549,0.3449551641448729,0.11060819370745323,0.19646476057333354,0.1844924830035131
0.1364547166362982,0.08058258318007942,0.4532310144602587,0.16651213555570313,0.17825911149586188,0.024583935917305812,0.139117174250641,0.008504108566844644,0.03409549558860027,0.22754831322714514,0.14044977618092122,0.25749302492665516,0.34542547133464074,0.11382035559384793,0.1986995629936983,0.18955038930463447
0.13581191388602096,0.08356318629283263,0.4566282873060758,0.16980770384143454,0.18076067398148238,0.024705582743653105,0.13867134100282683,0.008283815037129378,0.03406686649827151,0.2287881026052704,0.14255868571440927,0.2597292779028723,0.3458632460727627,0.11709615939242735,0.2009587470778714,0.1947130207698915
0.13519325441768668,0.08665950024192015,0.4599079907697907,0.17317745686959743,0.18320600447180113,0.024826690960655585,0.13816240508514968,0.00806647985866898,0.034043443377051674,0.22993439739950775,0.14466246710612832,0.261972095341284,0.34627312726195203,0.12043490149398826,0.2032405093975318,0.1999786574050461
0.13460239688215317,0.08987253274491105,0.4630667062271152,0.17662291828794546,0.18559266064855748,0.02494721416955153,0.13759093103061976,0.007852253054624378,0.034025097298853134,0.230984282337122,0.14675882382590208,0.2642194783850692,0.34666007879233407,0.12383570133733708,0.2055428963367522,0.20534524524739897
0.13404312555355263,0.09320314562841725,0.4661004727389235,0.18014540944655497,0.18791864998618865,0.02506707836276355,0.13695770569528598,0.007641276767093316,0.03401170575896229,0.2319350923418547,0.14884545080779316,0.2664693348118534,0.3470294331294896,0.12729748480013603,0.2078637325474895,0.21081038874727556
0.133519338186037,0.09665205190107178,0.4690046567995508,0.18374597768378295,0.19018250077418133,0.025186194148136554,0.13626379929082175,0.0074336833176449745,0.03400314708034467,0.2327845505591602,0.15092000291267335,0.26871963910501695,0.34738687252440165,0.13081896267414558,0.2102005458588753,0.2163713296561946
0.1330350193158421,0.10021981341430984,0.4717740657512354,0.18742535927337484,0.1923832926911097,0.025304468200596317,0.13551059881334943,0.00722959329650662,0.03399929204600889,0.2335308656442753,0.15298004162718262,0.2709685681322334,0.3477383531554968,0.1343986116906064,0.2125505419843799,0.22202492071690866
0.13259420177492662,0.10390683887501481,0.47440322557576226,0.19118399141458856,0.1945206431907067,0.025421812313772434,0.13469981319765198,0.0070291145158163275,0.033999992767342634,0.23417278104915484,0.15502296706643096,0.27321460410003917,0.34808998107451855,0.13803466866575986,0.21491066196307218,0.22776761480443797
0.13220091948638837,0.10771338193849948,0.47688668420237335,0.1950220500198262,0.19659464864552018,0.025538149493750665,0.1338334511715654,0.006832342569826056,0.034005068905303824,0.23470957182456872,0.15704596174011967,0.2754565979387543,0.3484478516048615,0.14172514052998839,0.21727769240619377,0.23359548418901244
0.13185915472474546,0.11163953909198282,0.47921927807139525,0.19893948267601633,0.19860578207824178,0.025653416716543198,0.13291377427425874,0.006639362699868462,0.03401429365710818,0.2351409876131365,0.1590459851870169,0.2776937882648952,0.3488178656447106,0.1454678223133386,0.21964838011330734,0.23950426210745657
0.13157278295633257,0.11568524703681972,0.4813963454379764,0.2029360257983312,0.20055475215559931,0.025767564168170783,0.13194322873274802,0.006450251992192877,0.03402738684073266,0.235467143825531,0.16101983067369768,0.2799257734564162,0.34920554377734553,0.14926031425685687,0.22201952751266793,0.24548939028193148
0.13134551814631074,0.11985027928928935,0.4834138738232978,0.2070112051357252,0.20244233066766298,0.02588055098409698,0.13092436079583145,0.006265081277121487,0.03404402127121686,0.23568836623480274,0.16296421455551607,0.282152437014092,0.34961588367843915,0.15310003353971446,0.2243880589535386,0.25154606261524926
0.1311808658952218,0.12413424174000517,0.48526857173132587,0.2111643199011543,0.20426917496893715,0.025992337687272063,0.12985972067361368,0.006083916556433161,0.03406383954440714,0.23580499716979467,0.16487586598634524,0.284373829101372,0.35005331664937056,0.15698421783155467,0.22675104947281396,0.25766925895160653
0.13108210025710235,0.12853656693521065,0.48695785820220416,0.21539441185226743,0.20603571524722905,0.026102875679179575,0.12875176593842474,0.0059068199159457956,0.03408647407467669,0.23581720021593663,0.16675160321699337,0.28659000977392307,0.35052176426021076,0.16090991801661106,0.22910571007677,0.2638537628312084
0.13105227222505167,0.13305650686353868,0.48847976784497293,0.2197002215889087,0.20774217243714996,0.026212094259287607,0.127602792473305,0.005733849900357543,0.03411156648439593,0.23572485764551643,0.1685883907670274,0.2888008642908005,0.35102472971406123,0.16487397784949742,0.23144932668235085,0.27009415768257405
0.1310942355515658,0.13769312404418613,0.4898327734849337,0.22408013810900154,0.20938868714717787,0.026319887837848766,0.12641492630149656,0.005565061349363399,0.0341387850184694,0.23552763232764576,0.17038337269099202,0.29100593248493883,0.351565365389016,0.16887300012396939,0.23377915343380268,0.2763847969026256
0.1312106710987257,0.1424452807133761,0.4910155332054883,0.22853215781030264,0.21097548246055128,0.02642611028294204,0.12519017576778918,0.005400504718245462,0.03416783898204901,0.23522514705410644,0.17213387841246547,0.29320434043737015,0.35214650054058877,0.17290330982479798,0.2360922750882674,0.28271974475791034
0.13140410326037624,0.1473116258942341,0.49202657303556385,0.23305387283094167,0.21250300908722267,0.026530581213379575,0.1239305076661219,0.005240224932239011,0.034198489258876086,0.23481718348423736,0.1738373990983453,0.2953948820504844,0.35277063129441655,0.17696094136466775,0.23838549376500556,0.289092692838504
0.13167690870256768,0.15229058011244326,0.4928639596163845,0.23764249026259024,0.21397205837979075,0.02663310030015695,0.12263791628259271,0.00508425992450946,0.03423055409853927,0.23430384994414613,0.1754915342039401,0.297576188414436,0.35343987770045876,0.1810416691075055,0.24065532055653885,0.2954968843341654
0.13203131830241938,0.1573803174909899,0.4935251102294091,0.24229486282872262,0.21538383986368798,0.026733462987123813,0.12131447598347382,0.004932639406054545,0.03426390956275872,0.23368570440103864,0.17709390953926504,0.29974689894576234,0.3541559148001802,0.18514106959057788,0.24289809309334173,0.3019251035006136
0.1324694134293391,0.16257874492953994,0.4940068698394893,0.2470075127210378,0.21674002212834978,0.026831474913501324,0.11996237618913153,0.004785384798144043,0.034298484286592254,0.2329638261382817,0.17864206988842488,0.3019058009318141,0.35491988704882854,0.18925459290388638,0.24511015589082943,0.3083697562540712
0.1329931178725588,0.1678834791756431,0.49430580304919575,0.2517766412160513,0.21804273791814519,0.026926964389303556,0.11858393835457477,0.00464251068332769,0.034334248526182054,0.2321398328034877,0.18013336819085585,0.30405193105498113,0.35573232745715744,0.19337763094826393,0.24728803522389092,0.3148230075800852
0.13360418677743588,0.17329182676796404,0.49441854517812456,0.25659812121682124,0.21929455593458091,0.027019792320663896,0.11718161531840109,0.004504027053426496,0.034371197809422445,0.23121584283194405,0.18156491114387566,0.30618463475633056,0.35659311866708293,0.19750557571211147,0.24942857967585005,0.3212769296141525
0.13430419391893028,0.17880077510384368,0.4943421166516808,0.26146747071841303,0.2204984231491995,0.0271098590327249,0.11575797408358765,0.004369941479908965,0.03440933185288424,0.23019438654361302,0.18293360708412168,0.30830358157101195,0.3575015110364277,0.2016338606350704,0.2515290552901158,0.3277236370721893
0.1350945185286516,0.18440699801731478,0.4940741710657779,0.2663798070132598,0.22165758231219576,0.027197107513959186,0.11431566376039964,0.004240260843112022,0.03444863060462429,0.22907827225732943,0.18423628749473092,0.31040873667549823,0.35845616386649365,0.2057579786946166,0.2535871875088423,0.33415539691931423
0.13597633272077742,0.1901068714375268,0.4936131635464529,0.27132979493024334,0.22277546984682334,0.027281522713096112,0.11285737103585872,0.004114992503656015,0.03448903399949074,0.2278704163614292,0.1854698438666247,0.31250029074925856,0.3594551675946415,0.20987347204708812,0.25560114590231653,0.3405646994970533
0.13695059035391674,0.19589649396254394,0.4929584299079402,0.2763116258073888,0.2238555994928585,0.027363126662452757,0.11138576612630186,0.003994144834823347,0.03453043649598133,0.22657365471841315,0.18663135094620106,0.31457855185285827,0.360496030548927,0.21397588979729928,0.2575694717142971,0.3469442798259589
0.13801801794322532,0.20177171049104878,0.4921101714589256,0.2813190549868463,0.2249014369677661,0.027441969381073572,0.10990344269055946,0.0038777270797090515,0.0345727004302623,0.22519058610793466,0.18771816745734943,0.31664380438013556,0.361575640059122,0.21806071262882512,0.2594909521209337,0.3532870804637592
0.139179108019097,0.20772813818796193,0.4910693449517975,0.2863454831102044,0.22591627061979846,0.027518115724940242,0.10841286050104118,0.00376574854802924,0.0346156793424406,0.22372352776528895,0.1887280079087653,0.3186961412830334,0.3626902412849151,0.22212324709736148,0.261364448523833,0.35958615100266283
0.14043411512743037,0.2137611936955733,0.4898374619334286,0.2913840506756518,0.22690309432757358,0.0275916285905407,0.10691631096469575,0.0036582172199094245,0.03465924095967524,0.22217460762975505,0.18965898043417798,0.3207352935553716,0.3638354824545695,0.22615851767187714,0.2631886985289576,0.36583448378682093
0.14178305448458195,0.21986612010886566,0.4884163064393015,0.29642773006442297,0.22786454316339214,0.02766255046887957,0.10541592146385373,0.003555137944516187,0.03470328600869008,0.22054592328684583,0.19050958729610715,0.32276052320628174,0.3650065272926912,0.23016122490256646,0.2649621531170054,0.37202480310193076
0.1432257031337506,0.2260380118382741,0.48680758436362664,0.30146940718586196,0.22880291109494597,0.027730889829877186,0.10391368802151633,0.0034565108551360595,0.03474776207266173,0.21883968989632527,0.19127868663200687,0.3247706434866497,0.36619819760559424,0.23412581452102735,0.26668294152775296,0.37814938340789717
0.14476160329290755,0.23227183511815888,0.48501256930056863,0.30650194457707497,0.22972022596350453,0.027796620614944242,0.10241151104791055,0.0033623310447936944,0.03479267201286152,0.21705834959181972,0.19196541612519613,0.3267641488402169,0.36740511463787856,0.2380466198936446,0.2683489901095714,0.3842000195880739
0.14639006743394012,0.23856244162292656,0.4830319155197977,0.3115182180606394,0.2306183351159591,0.02785969562056147,0.1009112190629988,0.0032725899006971503,0.03483807678190113,0.2152046382632992,0.19256908141215587,0.32873938125508934,0.3686218208784534,0.24191801528072188,0.26995821860147123,0.39016819370296824
0.148110184488889,0.24490457246554354,0.4808657735305015,0.3165111199665206,0.23149897899351982,0.027920066062498396,0.09941457720448019,0.0031872772721819264,0.03488409274295811,0.21328160849468264,0.19308901405675644,0.3306946829322069,0.36984286758684676,0.24573455088303084,0.27150873080636323,0.3960453495290249
0.14992082644649077,0.25129284981460337,0.4785141292053645,0.3214735234639363,0.2323638488126422,0.02797770025216574,0.09792328118210844,0.0031063834815847637,0.034930883863634,0.21129261020790607,0.19352442073238835,0.33262851936120325,0.371062855342037,0.2494910587231151,0.2729989688071978,0.4018231691485187
0.1518206544882722,0.25772175351069776,0.47597718851141235,0.32639820467013175,0.23321462782971356,0.02803259887443018,0.09643893866305166,0.003029900797003841,0.034978649365074686,0.20924123306092618,0.19387428542918733,0.33453956659650513,0.3722764183422644,0.25318271977625656,0.2744278231953485,0.407493805398958
0.1538081237275647,0.2641855804164648,0.4732557107054588,0.33127772179482595,0.23405301630860312,0.028084806204659314,0.09496304120542882,0.0029578242918581778,0.035027607571915004,0.2071312166940977,0.19413738828527935,0.3364267581722287,0.37347814770976245,0.256805084981373,0.2757946942854333,0.4130500516706255
0.15588148556672857,0.2706783848111109,0.47035126105700503,0.3361042676860023,0.23488074094941705,0.02813441691305696,0.09349693452656185,0.002890152068306639,0.03507797682503458,0.20496633640071898,0.19431243052069327,0.338289289128111,0.374662454245587,0.26035404568759474,0.2770995019330781,0.41848543422423523
0.15803878668614865,0.2771938989381789,0.46726636788507253,0.34086955918380946,0.2356995501640157,0.028181578418554676,0.09204180281983376,0.002826884872773563,0.03512995438795561,0.20275027265505402,0.19439819756386356,0.3401265769446089,0.3758233899389065,0.2638257525025238,0.2783426442163101,0.42379421708580844
0.16027786372930097,0.2837254454172428,0.46400457425534586,0.34556484725461933,0.23651119716011976,0.028226489035653606,0.09059867724729066,0.002768025176995758,0.03518369638625353,0.20048648579685915,0.19439371018087231,0.34193818164509765,0.37695450157899874,0.2672164851106643,0.2795249077628486,0.42897131528368626
0.1625963328540237,0.29026588286988175,0.4605703812383263,0.3501810621049122,0.23731741327226058,0.02826939237763926,0.08916845888377074,0.0027135758331391672,0.03523930640661784,0.19817814460929936,0.19429834659219272,0.3437236897067336,0.37804882359903924,0.2705224790997394,0.28064733479296394,0.4340121182733075
0.16499157347981155,0.2968076272645596,0.4569690866893679,0.35470902684100997,0.2381198743041431,0.028310568623302078,0.08775193907968075,0.002663538434107344,0.03529683882377084,0.19582814655826433,0.19411192902297048,0.3454825684953338,0.37909903895092834,0.2737397399758977,0.28171105390393064,0.4389122313695994
0.1674607057698682,0.3033427431397502,0.4532065304546822,0.3591396751303817,0.2389201627809195,0.028350323319923456,0.08634980901368022,0.0026179116930359144,0.03535631312285487,0.19343920518277333,0.19383476994568982,0.34721399948495874,0.38009772536757297,0.27686392750840855,0.2827170831685799,0.443667148411282
0.17000056398701147,0.30986306602733754,0.4492887630801681,0.3634642452377834,0.23971972892512017,0.028388974392326377,0.08496265716620942,0.0025766905286873686,0.03541773070442144,0.19101394942814134,0.19346767536880438,0.34891671492656506,0.3810375979477974,0.27989038856183784,0.2836661403930803,0.4482719254406787
0.17260767574207259,0.31636032928132946,0.4452216750934629,0.36767443673787387,0.2405198528612966,0.028426837973059442,0.08359095538672358,0.0025398663749291103,0.035481089513042546,0.1885550044274606,0.19301190480257233,0.350588898612345,0.38191171155728854,0.28281431638632204,0.2845585474756941,0.45272103091042565
0.17527826144249647,0.322826284551553,0.4410106943248535,0.37176251772155205,0.2413216100389461,0.028464213582077284,0.08223504018389062,0.0025074283660005085,0.035546395435089306,0.18606504735925414,0.19246908988053854,0.3522282023737618,0.38271361001497217,0.2856309492710832,0.2853942901966827,0.45700848945402633
0.17800825771718962,0.32925280828500414,0.4366607128672247,0.37572137268982414,0.24212584117859973,0.028501369565032,0.0808951065440877,0.0024793646367307597,0.0356136701948097,0.18354683787115736,0.19184111590507802,0.35383185407886253,0.3834374126744445,0.28833575060755645,0.28617318318754736,0.4611282131263659
0.18079335533255206,0.33563198649222536,0.43217628697646054,0.3795444844091307,0.24293312724584318,0.02853853183542338,0.07957122705379824,0.002455663325350456,0.03568295562095382,0.18100322383364675,0.19112997268141846,0.35539679027268783,0.3840778328705952,0.2909245517483061,0.2868950499166564,0.46507434865266173
0.18362904193678478,0.3419561703181991,0.4275619669017955,0.38322584657309156,0.24374376910734852,0.02857588085923982,0.07826338832279878,0.0024363131984535577,0.035754314292243385,0.17843712425883457,0.1903375901617442,0.35691977460109603,0.3846301264320648,0.29339365005637075,0.28755987600222066,0.46884156961350765
0.18651064570119702,0.34821799572982826,0.4228226034583938,0.38675980793379827,0.2445577706922303,0.028613558286287116,0.07697152935659812,0.0024213039011819273,0.035827826694927824,0.17585149206625916,0.18946570653722364,0.358397494629367,0.3850899718492105,0.2957398568884893,0.28816792657580703,0.4724252973396531
0.1894333778645431,0.35441036187046715,0.4179635776515457,0.390140852383905,0.24537482374218766,0.028651678787683207,0.07569557476213279,0.0024106258590218606,0.035903585136573844,0.17324926000365776,0.1885158396313928,0.35982663795761577,0.3854532866762388,0.29796049267121316,0.28871982282175845,0.4758218384800572
0.19239237194131406,0.36052636430412227,0.4129909451414893,0.3933633243340663,0.24619429165162016,0.028690342411744767,0.07443546065370996,0.00240426987714493,0.035981684755178225,0.1706332734557769,0.18748937930614457,0.3612039496982873,0.38571598739913965,0.30005332864908907,0.28921657467963935,0.4790284315967811
0.1953827171756344,0.3665591814198702,0.4079114930922746,0.39642115929832916,0.24701518953215507,0.02872964598600028,0.07319115182998501,0.00240222649796916,0.036062212040567365,0.1680062141246468,0.18638773798362712,0.3625262737387862,0.38587372370577466,0.30201647728123754,0.28965956869208614,0.4820431997429365
0.1983994837281783,0.37250191460859006,0.4027327124266841,0.3993077704513992,0.24783615752982233,0.028769693424081734,0.07196264951087282,0.002404485186804221,0.03614523134539099,0.1653705281661975,0.18521249285790822,0.36379057972755346,0.38592168616905903,0.3038482356077644,0.2900505120452158,0.4848650106149222
0.20143773709282758,0.3783473872660434,0.3974626933848184,0.402016191119745,0.24865542598344018,0.028810604778196476,0.0707499895932071,0.0024110334187376586,0.03623076990597758,0.16272839182453586,0.18396549593588377,0.3649939765230273,0.38585461216666556,0.3055468881402883,0.2903913358953185,0.4874932503831034
0.20449253936917197,0.38408794750893993,0.39210995631843076,0.4045393843883239,0.24947078212532262,0.028852523859566163,0.06955323195613757,0.0024218557374020696,0.03631880347635475,0.16008173766795641,0.18264894706873605,0.3661337112093178,0.3856670014642115,0.3071104945240366,0.2906840629925164,0.489927521549914
0.2075589352796364,0.3897153878056727,0.3866832326870177,0.4068705763364756,0.25027956490745007,0.028895624235367675,0.06837244179403952,0.002436932911987693,0.03640924818547021,0.1574323216544934,0.18126542745506677,0.36720715108534696,0.3853534276430866,0.3085367383509558,0.2909306462784638,0.49216727900721496
0.21063192122457355,0.39522105681858305,0.3811912131538994,0.40900355266706273,0.25107870713646707,0.028940113404691204,0.06720766426908735,0.0024562414358164264,0.03650196327827815,0.15478179558006697,0.17981789349986463,0.36821174467463585,0.38490884081448384,0.3098229284921072,0.2911327938570967,0.4942114761454014
0.2137063962176054,0.4005960996783702,0.3756422901246137,0.4109329024894522,0.2518648147333327,0.02898623496012029,0.06605889396721532,0.0024797535157987612,0.03659676225415385,0.15213176825649835,0.1783096332340309,0.36914495712428447,0.3843288209666507,0.31096615539309486,0.2912918284343176,0.4960584028212065
0.21677709423205804,0.4058317219595162,0.37004436043114397,0.41265419502975115,0.25263426329420274,0.02903426855729417,0.06492604409923136,0.002507437373488599,0.03669342626329382,0.14948385187430974,0.1767441895851914,0.3700041755863738,0.38360976536453323,0.31196351437799014,0.29140865435708485,0.49770583619881004
0.21983850095906335,0.41091943195384906,0.36440477616516903,0.4141640779038859,0.2533833025351352,0.02908452754341135,0.06380892860255816,0.002539257562106957,0.036791716299865065,0.1468396919946053,0.17512525651507338,0.37078658136640064,0.38274899622713376,0.31281232001902365,0.2914838517993657,0.499151391878614
0.22288477718136493,0.4158512469173643,0.3587304542401428,0.41546028922138734,0.2541081639943213,0.029137354138163606,0.06270726951032095,0.0025751751736586407,0.036891383303168414,0.1442009803449488,0.17345655530861845,0.37148899080374764,0.38174477888980823,0.31351028456937047,0.29151783387112834,0.5003928934844956
0.22590973621283983,0.42061984996959917,0.353028051336898,0.416541580042925,0.2548051662911966,0.029193112118156502,0.06162072585734614,0.0026151479475184985,0.036992175806129235,0.1415694503648419,0.17174170416188625,0.37210770368323143,0.38059624562291305,0.3140556512063438,0.29151099780466283,0.5014286844328053
0.22890690250240722,0.4252186862183412,0.34730411554861684,0.417407548379014,0.2554708114674568,0.02925217702926033,0.06054892982479689,0.002659130322116333,0.03709384483336087,0.13894685622531353,0.16998411573607897,0.3726384551451801,0.3793032259541774,0.3144472746642266,0.29146384499769556,0.5022578642185735
0.23186962413231155,0.4296419894095811,0.34156518888503157,0.418058390724095,0.2561018655538073,0.02931492404020448,0.05949152070650519,0.002707073474177027,0.037196145822321884,0.13633493679944578,0.16818697181458359,0.3730765325411936,0.3778659903956925,0.3146846440211744,0.291377063754276,0.5028804361781184
0.2347911988441907,0.43388473383088955,0.3358178619059423,0.41849458177087084,0.25669541659058853,0.029381713652596914,0.05844817390378052,0.0027589253861430405,0.03729883742175047,0.13373536675143105,0.16635328440797675,0.37341700312187676,0.37628492051357887,0.3147678449112468,0.29125157011472774,0.5032973581418454
0.23766499613887715,0.4379425101200878,0.330068784952657,0.4187165102484043,0.25724890392542377,0.029452876462999066,0.05741862389922129,0.002814630971946987,0.03740167711228169,0.13114969750896996,0.16448599524084007,0.3736549657101828,0.37456016986289664,0.3146974612195211,0.2910885040242526,0.5035104924153223
0.24048456889141848,0.4418113277870407,0.32432464305869724,0.4187241705282447,0.2577601137290187,0.02952870149973863,0.056402680354960086,0.0028741322749781264,0.03750441369467391,0.12857930003386608,0.16258806532117367,0.37378578781808935,0.37269148324904455,0.31447441931694364,0.29088918024542837,0.5035224568964394
0.24324374761558268,0.4454873513515982,0.3185921035073256,0.41851707979015323,0.25822713728476093,0.02960943478603556,0.055400236734680315,0.0029373687314048257,0.03760677679976805,0.12602533925251322,0.16066253884730242,0.3738053143673757,0.3706783052759244,0.31409978099048325,0.29065499582425547,0.5033363845868347
0.24593671054172273,0.44896658099370274,0.31287774603358853,0.4180944848574986,0.2586482906478652,0.02969528966070478,0.054411271163568316,0.003004277469182698,0.03770846368811212,0.12348880103746533,0.1587125800515725,0.37371003470293673,0.3685200982337198,0.31357450107028606,0.29038729847118844,0.5029556039816789
0.2485580230917322,0.4522445417677957,0.30718798574546685,0.41745572469697645,0.25902199661591324,0.02978646322176196,0.05343583960615685,0.0030747935908348742,0.03780912461746863,0.12097055424720438,0.15674148330290016,0.3734971960614223,0.3662166930720645,0.3128992134796092,0.29008722431445083,0.5023832621490748
0.251102641183194,0.45531614535483766,0.3015289979417378,0.41660058987440074,0.2593466324372444,0.029883153151450906,0.052474061836147494,0.0031488503694007243,0.03790835147970889,0.11847141681054463,0.15475265839531624,0.3731648540534655,0.3637685772811848,0.3120741655491106,0.28975554302735107,0.5016219766210968
0.25356587408873865,0.4581758333403074,0.2959066522319221,0.41552961860181636,0.2596203634258175,0.029985572858576916,0.051526101061442973,0.003226379274711992,0.03800567663604303,0.11599221143114768,0.15274959433323487,0.37271185395434653,0.36117709188232117,0.3110993552820916,0.2893925951966484,0.5006736985786596
0.25594330430588297,0.46081790183957433,0.29032646094987397,0.4142443152371548,0.25984102628109906,0.030093964378907836,0.05059213841276142,0.003307309743974092,0.03810058369731415,0.11353380737852456,0.1507358059976186,0.3721377405206686,0.35844452555576906,0.30997478260565425,0.28899837106401816,0.4995398862489152
0.2582306640140949,0.46323684757604816,0.2847935441373992,0.4127472816726345,0.26000613759903246,0.030208608560074998,0.04967234376795522,0.0033915686184412754,0.03819252463096831,0.11109714636597307,0.14871476877528106,0.3714425984138102,0.3555741017778781,0.30870070022682733,0.288572672653474,0.4982218584570783
0.2604236701291251,0.46542767044518196,0.2793126107331921,0.411042257129288,0.2601130286003987,0.03032983215985269,0.048766845445049084,0.0034790791874967433,0.03828093731407093,0.10868325140380655,0.14668984652134154,0.3706268297800158,0.3525698630073202,0.30727781838767576,0.28811527466582787,0.49672114753599433
0.2625178431327106,0.46738611799009805,0.2738879533571183,0.409134067091577,0.26015903387151157,0.030458011599637323,0.047875706011699964,0.0035697600004779076,0.03836526125925687,0.10629321852101213,0.1446642219700689,0.3696908797152764,0.3494364636681478,0.3057074516381864,0.28762604927038316,0.4950397807516993
0.2645083907408865,0.46910885985028855,0.26852345243156983,0.40702848709342443,0.2601416728725177,0.030593573233902924,0.046998915723008274,0.003663524119700953,0.038444950696933274,0.10392819230295763,0.1426408492839391,0.36863494917327766,0.34617889018325604,0.3039915992686018,0.28710504642751666,0.49318047611244004
0.26639024307525977,0.4705935834164777,0.26322258439657376,0.40473203146611486,0.26005880275911036,0.030736990118431434,0.046136406872700174,0.0037602795539260028,0.038519484240969064,0.10158932721421349,0.14062244885601785,0.36745880438041034,0.34280213428820133,0.3021329552691541,0.2865525244425538,0.4911467438815866
0.26815823006471984,0.47183900549649727,0.25798842842434855,0.4022516807092901,0.2599087357086263,0.03088877538285785,0.0452880783829125,0.0038599308331729422,0.038588370446983655,0.09927773757673194,0.13861153984998734,0.3661617964814555,0.3393108948548822,0.30013484828859394,0.2859689289565607,0.4889428909801202
0.2698073156214817,0.47284479861613704,0.25282366625862407,0.3995945636693947,0.2596903161404174,0.031049472433636895,0.044453819185079346,0.003962381095102662,0.03865114869480424,0.09699444314085658,0.13661048428974668,0.36474307376823123,0.3357094543550845,0.29800111665000223,0.28535482220451097,0.4865739313042557
0.2713328232862397,0.47361143447837606,0.24773057053821804,0.3967676258670132,0.25940295555827153,0.03121964232773835,0.04363352678496959,0.004067534193408662,0.038707384991258455,0.09474032888684855,0.13462152310363792,0.3632018622913879,0.332001801454902,0.29573592763845524,0.2847107677801965,0.4840454103791278
0.2727306282040257,0.4741399509097681,0.24271098330645408,0.39377737151810394,0.2590466250334303,0.03139984875974552,0.042827120943106166,0.004175296590737492,0.0387566624957911,0.09251614248532142,0.13264679976996802,0.3615377221403756,0.3281918856964987,0.2933435536241518,0.28403717903603665,0.4813631573584869
0.2739973025033107,0.4744316521618907,0.23776630400600512,0.39062980443917145,0.2586218074341017,0.03159064118948901,0.04203455268031272,0.004285578860532229,0.038798566815748066,0.09032253119391868,0.13068837274843134,0.359750751329423,0.32428385583082137,0.2908281316990754,0.28333415978225784,0.4785329808911251
0.275130203315303,0.4744877555485106,0.2328975158406823,0.387330592565778,0.2581294132738557,0.03179253745342808,0.0412558090281209,0.004398296636402253,0.03883266639240023,0.08816009459472422,0.1287482185045818,0.35784173110543394,0.3202822289753806,0.2881934783211684,0.2826014097187246,0.4755603435922604
0.2761274957299552,0.4743090443269819,0.22810525856591649,0.38388533671081254,0.25757066542313045,0.032006010252702874,0.04049091407620196,0.004513370875995886,0.038858490957458657,0.08602943154448753,0.12682822729627133,0.35581221012337094,0.3161919866060024,0.285443054688722,0.28183825793717476,0.47245011069653686
0.27698810675222496,0.473895683992941,0.2233899292668849,0.380299823754456,0.2569469588741576,0.03223148402288932,0.03973992692576312,0.004630727346820687,0.038875517587138565,0.08393117422777038,0.12493019398603049,0.3536645282117165,0.31201859848214064,0.28258009692072317,0.28104379949793185,0.469206503518725
0.2777116105418613,0.473247324779434,0.21875179067766626,0.3765802250118209,0.25625970227526634,0.032469343630882365,0.039002937150128425,0.004750295290880564,0.038883174740844316,0.08186600827138298,0.12305580599096794,0.3514017831732664,0.3077679798917767,0.2796078185408666,0.28021705853821216,0.4658332795462827
0.27829804959068166,0.47236341405636756,0.21419107561373982,0.3727332350495401,0.2555101480897944,0.03271994898059989,0.03828005830858795,0.004872005279453068,0.03888086343915514,0.07983467884947337,0.12120663012503843,0.34902774613783843,0.3034463909248764,0.27652959605687966,0.27935713041398674,0.462334015325141
0.2787477006849731,0.47124355387330663,0.20970807906470904,0.36876614930952,0.25469923819010004,0.03298364952374008,0.037571419976225935,0.004995786324394185,0.03886798542689691,0.07783798361938933,0.11938409959036594,0.3465467323979061,0.29906028883080205,0.27334910846563637,0.2784632891447435,0.4587123707862057
0.27906081075508676,0.46988781705398197,0.20530322958802158,0.3646868818191642,0.25382753112757817,0.03326079667566795,0.03687715865875755,0.005121562729273524,0.038843970375106715,0.07587675411450419,0.11758950181004153,0.34396343547873715,0.2946161459676299,0.2700704269339134,0.277535055416314,0.4549722943280749
0.27923738250160035,0.46829699895513627,0.200977132789962,0.3605039269041707,0.25289525369623467,0.033551753809953684,0.03619740787178334,0.005249252093924112,0.03880829906540099,0.07395182783317168,0.11582396724242118,0.34128273252861047,0.2901202500556271,0.2666980538328616,0.27657222258066816,0.451118162025522
0.2792771292934408,0.4664727937510487,0.19673058189864503,0.3562262710741394,0.2519024320350552,0.033856903601709204,0.03553228758814827,0.005378765843995604,0.038760521014803664,0.07206401367294281,0.11408845884653714,0.33850946909159857,0.2855785325726837,0.263236912997978,0.27557484026733464,0.4471548478494236
0.2791796308284967,0.46441788777839177,0.19256453356277364,0.351863263046913,0.25084903270148434,0.03417665259112952,0.034881893200852304,0.005510011973423863,0.038700265215895195,0.07021405407919588,0.11238376153344157,0.3356482374078353,0.28099650775387897,0.25969229544510164,0.27454315731449885,0.44308772521403506
0.27894458680887996,0.4621359665574158,0.18848005068354234,0.3474244511639598,0.24973508621433788,0.034511432941278085,0.0342462841143931,0.005642898566058475,0.0386272429894624,0.06840259258233039,0.11071047077123733,0.3327031973972028,0.27637935616409187,0.25606976672043835,0.27347752766277095,0.4389226033845484
0.27857205891400527,0.45963163637411014,0.1844782177658799,0.34291939820160255,0.24856078964175388,0.03486170146446494,0.03362547250208021,0.005777337130931209,0.038541242364091566,0.0666301624502669,0.10906898128798273,0.32967802631906407,0.27173208283424793,0.2523750435418271,0.2723782845500565,0.43466560516294817
0.2780626609496624,0.45691026552342684,0.1805600373373798,0.3383574838034422,0.2473265866516986,0.03522793608558819,0.033019414846673714,0.005913245436727655,0.038442113890141544,0.06489720302054407,0.10745948177670249,0.32657602834034716,0.2670596650696306,0.24861384836139286,0.27124558972167323,0.43032299471050867
0.2774176883632014,0.45397775423351294,0.17672632471567415,0.3337477158984955,0.24603322410258055,0.035610629994402475,0.03242801082025424,0.006050549710599779,0.03832974833639649,0.0632040901266663,0.10588196283919252,0.3234003309596767,0.26236715988641257,0.24479175093071753,0.2700792844155092,0.42590096625987484
0.27663918227425666,0.45084024569005643,0.1729776366777003,0.3290986042566253,0.24468178484131523,0.03601028380762383,0.03185111098807362,0.006189186101517728,0.038204047270598174,0.061551164218728964,0.10433623822681494,0.3201540841384432,0.2576597678304914,0.240914023572267,0.26887881055901314,0.4214054057410617
0.27572992722262935,0.44750379326782613,0.16931426687475984,0.3244181527243988,0.24327369690634534,0.03642739611187028,0.03128852942168088,0.006329101343332211,0.03806489135445088,0.059938750731622664,0.10282197316138447,0.3168406323618144,0.2529428526911827,0.2369855712425237,0.2676432557744256,0.4168416665570736
0.2746933856976581,0.4439740376438201,0.16573629743264673,0.31971395921352125,0.241810719816873,0.03686245278562204,0.030740056904492934,0.006470252585392591,0.03791211998588219,0.05836717262794659,0.10133871474354786,0.3134636540650427,0.24822191932794468,0.23301097496019887,0.26637148970809504,0.4122144590345586
0.27353357594634836,0.44025602877837083,0.16224366329216133,0.3149933524668861,0.24029490907832615,0.03731591549943253,0.030205473245560728,0.006612606387871396,0.03774553596745835,0.0568367555573572,0.0998859223494853,0.3100272635705564,0.24350255428251458,0.22899460626727475,0.2650623205132802,0.40752792224248835
0.27225490237225963,0.43635429967711475,0.15883619976020086,0.3102635115103364,0.23872856045586088,0.03778820976736156,0.029684558413375185,0.006756136904827617,0.03756493241595867,0.05534782649263887,0.09846299659011182,0.3065360717453731,0.238790335873986,0.22494074564376268,0.2637146341383621,0.4027858177285594
0.27086194990093515,0.4322731268627456,0.15551366875334857,0.3055315537074452,0.2371141359678075,0.038279712870998094,0.02917710219914568,0.006900823301194988,0.037370126811563896,0.05390070699884537,0.09706930529886115,0.30299520304821115,0.23409072193791566,0.2208536765772982,0.2623275071671379,0.39799173896170886
0.269359254924572,0.4280168298290474,0.1522757680607093,0.3008045914372066,0.2354541739316224,0.03879074252522065,0.02868291213361681,0.007046646471357139,0.037160991195057495,0.05249570245323772,0.09570420503790483,0.29941026846221525,0.22940892970553073,0.21673775168771983,0.2609002892309393,0.3931492880325801
0.2677510933287679,0.4235900286000811,0.149122129027753,0.29608975888977457,0.23375118575256207,0.039321548917727406,0.02820181941180975,0.0071935851476845085,0.036937474803745735,0.05113308856370062,0.0943670567609208,0.2957872958962508,0.22474984371105836,0.2125974307477806,0.2594326523814732,0.3882622108247164
0.26604137913411147,0.4189978398667148,0.14605230826470106,0.29139421172203955,0.2320075424692562,0.03987231321720491,0.02773368262275351,0.007341611688037251,0.036699617850433484,0.04981309644889055,0.09305723452335589,0.2921326218168221,0.22011799962262177,0.20843729181035933,0.2579246061877526,0.38333448783857904
0.26423373153949725,0.4142460058061924,0.14306577849679308,0.28672510328945394,0.23022535997270915,0.040443152353087125,0.02727838913221889,0.0074906886367673365,0.03644755577021243,0.0485358973716857,0.0917741264600947,0.28845274994338055,0.21551765074516605,0.20426201782072861,0.25637647865430674,0.378370379932869
0.26233164528304914,0.40934095324612535,0.1401619227065132,0.2820895418506454,0.22840641332461378,0.04103412671726054,0.026835854022604345,0.0076407678291213095,0.03618151391158842,0.047301588690736626,0.09051712762354548,0.284754184604131,0.21095286918762704,0.20007636202284929,0.25478886431711356,0.3733744301628671
0.26033866537522443,0.40428978432292456,0.13734003443632747,0.2774945335255968,0.2265521242680673,0.041645248205057994,0.026406016554798416,0.007791792616584105,0.03590179327607678,0.04611018464774474,0.08928562466187767,0.2810432476418245,0.2064276353172016,0.195885096140741,0.253162542033982,0.3683514245735879
0.25825852687211487,0.39910020302121746,0.13459932563866542,0.2729469158941542,0.2246636303042687,0.042276488019313906,0.02598883418398422,0.007943701805953449,0.035608748465691134,0.044961616240707984,0.08807897269268433,0.27732591154139197,0.20194590076354335,0.1916929457237961,0.251498366028956,0.3633063162008204
0.2560952548264961,0.3937803848068493,0.13193894186794541,0.2684532869820941,0.2227418943127289,0.04292778430072378,0.02558427423806219,0.008096433741556013,0.035302759443794254,0.04385573984496947,0.08689646507480792,0.27360772535140443,0.1975116239282104,0.18750451719554737,0.24979713465939232,0.3582441176231507
0.2538532231337834,0.3883387988581628,0.12935798301647308,0.26401993403966717,0.22078781421350258,0.04359904959879854,0.02519230345566851,0.00824992995054153,0.034984199890805465,0.04279234937117151,0.08573729828279711,0.2698938782732575,0.19312877871753337,0.18332422105743895,0.2480594455846849,0.3531697681903483
0.2515371728862433,0.38278399407481145,0.12685552635678235,0.2596527660193505,0.21880231916705273,0.04429017812827175,0.02481287567972057,0.008404138202350047,0.03465341026730658,0.04177118769488604,0.08460054170552546,0.26618934382581566,0.18880133877622104,0.17915620204597582,0.246285571301242,0.3480879825411241
0.24915219249789297,0.37712436105853153,0.12443064756280213,0.2553572554970941,0.21678644975748537,0.04500105267112586,0.024445918997441474,0.008559014856325767,0.03431068924774484,0.040791956296643624,0.08348513112844741,0.2624990231719544,0.18453324077096894,0.17500430136287726,0.2444754205622802,0.3430030915194905
0.24670366323493112,0.3713679018640815,0.12208243484180761,0.25113840197955983,0.2147414201331757,0.04573155088968734,0.024091326584520137,0.008714526401630503,0.03395630855173277,0.03985432315716859,0.08238989478876099,0.2588278573777847,0.18032833120281141,0.17087207041325117,0.2426286160735489,0.3379189124003961
0.24419717486544057,0.36552208706809924,0.11980999147286321,0.24700072764172024,0.21266866068606693,0.0464815507173314,0.023748956748963528,0.008870650129207597,0.03359053969358731,0.03895792889294382,0.08131359895615439,0.2551809055078507,0.17619030178853856,0.16676282226893258,0.24074463918363487,0.3328387136522996
0.24163841692390542,0.3595938747086904,0.11761242297432255,0.24294829896128053,0.210569840515892,0.04725093439796894,0.023418642615318674,0.009027373913956636,0.033213679222556754,0.03810239104963076,0.08025499609588428,0.2515633876952828,0.1721226213939079,0.16267969041773814,0.2388229787522954,0.32776529893378703
0.23903305158248989,0.3535898651257482,0.11548880674551705,0.23898475343000705,0.2084468696216586,0.04803959066426375,0.023100206092980257,0.009184695123582708,0.032826067628978876,0.037287306420342954,0.07921286895880288,0.2479806941886383,0.16812848391441626,0.1586256780193933,0.2368632605957232,0.32270115531464416
0.2363865743584589,0.3475164957724905,0.11343814414865609,0.23511331678790157,0.2063018814592218,0.04884741449056699,0.022793471233986812,0.009342618706089278,0.032428101184124085,0.03651225124356413,0.07818606877265369,0.244438363049535,0.1642107990283318,0.1546036945927819,0.23486535259224076,0.3176486015030978
0.2337041850897568,0.34138021142659963,0.11145930580321191,0.2313368081628096,0.2041371971663962,0.0496743038436933,0.0224982752437759,0.009501154538535733,0.03202023640012885,0.03577677917506328,0.07717354586327271,0.2409420305868573,0.16037223050319716,0.15061658037009928,0.23282944147461151,0.31260991367979934
0.23099072460126807,0.3351875929944577,0.10955100201331587,0.22765763480675558,0.2019552733507401,0.050520152894856896,0.022214476644013412,0.009660314144163308,0.03160298721156795,0.0350804170228399,0.0761743712791379,0.23749735971448727,0.15661525507991905,0.1466671190283409,0.23075607846930032,0.3075874257059118
0.22825071550603407,0.3289454426798607,0.10771180620015343,0.22407778029145214,0.19975863582948605,0.051384841256796404,0.02194196023768023,0.009820106902558612,0.031176915374602442,0.03442265837694435,0.07518774832591477,0.23410995217923944,0.15294221523238732,0.14275803987597574,0.22864619222917032,0.3025836014601687
0.22548847296069072,0.3226608254209912,0.10594021959085113,0.22059879563959503,0.19754980208512002,0.05226821897242473,0.02168063870581739,0.009980535887754218,0.03074261493746267,0.03380295544088786,0.07421301332835564,0.23078525100982303,0.1493553574779061,0.13889201083458327,0.22650106889143964,0.2976010781014119
0.22270822522042902,0.3163410685015998,0.10423474330983687,0.21722180501060756,0.19533119544404093,0.05317008719937295,0.021430450860006257,0.010141593471876454,0.03030069194224561,0.03322071009785444,0.07324962540612202,0.2275284395866599,0.145856855922829,0.13507162372140014,0.22432230051241886,0.2926426801130354
0.21991421616581572,0.3099937230349784,0.10259393676030841,0.21394752726714328,0.19310505410061946,0.05409017716166095,0.021191356772116542,0.01030325724207771,0.02985174115932358,0.03267526727319519,0.07229714555265158,0.22434435344164746,0.14244882156829144,0.13129937342362966,0.22211170451115542,0.28771140502252585
0.21711078409059875,0.30362649253425716,0.10101645518793437,0.21077630247408863,0.19087334759794583,0.05502813638743822,0.0209633301905296,0.010465487662868818,0.02939632545447754,0.03216591454940417,0.07135520581276368,0.22123743881714614,0.1391332986130143,0.1275776325751334,0.2198712180188006,0.2828103826604901
0.21430241412837156,0.2972471349644252,0.09950106368644213,0.2077081124118745,0.18863773370861084,0.05598353210300083,0.02074634881705393,0.010628228581456513,0.028934968352946375,0.03169188828927348,0.07042346983413489,0.2182117757484704,0.1359122495488012,0.12390862331588401,0.21760277210569376,0.2779428106906609
0.21149376271608428,0.290863345479658,0.09804662726607646,0.204742590262118,0.18639958079078692,0.05695587104560432,0.020540383147942827,0.010791409817407983,0.02846816460372672,0.03125238202170581,0.06950158648974303,0.21527113640016973,0.13278753123734408,0.12029438764664843,0.2153081530941998,0.273111869874442
0.2086896536561498,0.28448262746044,0.09665207903493232,0.2018790174551345,0.18416003751227425,0.057944626480024845,0.020345384802134516,0.010954950289559609,0.02799640030907407,0.030846553089926558,0.06858914317777849,0.21241903889422808,0.1297608643835448,0.11673676152274305,0.21298887915637915,0.2683206231093507
0.20589504661664676,0.278112162058725,0.09531637078971558,0.19911631108385006,0.18192011317001103,0.05894926538342084,0.020161276642440246,0.011118760929184825,0.027520171906063012,0.03047352612504776,0.06768563708464109,0.20965878203968052,0.12683379889000104,0.1132373651758449,0.2106461530687598,0.26357190268858505
0.2031149802420978,0.2717587036652885,0.09403841212936626,0.19645301863895206,0.17968075007322118,0.05996927309195016,0.01998794870068949,0.011282747267443332,0.02704000000747732,0.030132393059696914,0.06679048228422532,0.20699346072789093,0.124007680987863,0.10979761774141966,0.20828092372627607,0.258868199564397
0.20035449334768154,0.26542854770468705,0.09281701049623342,0.19388734087841875,0.17744288441144782,0.06100417392850641,0.019825261294796843,0.011446811693455716,0.026556437492563853,0.029822209678942713,0.06590304801010136,0.2044259636411888,0.12128363575650057,0.10641876742774468,0.2058940112692084,0.254211593138021
0.1976185288271019,0.25912758545470976,0.0916508349137562,0.19141718584943668,0.17520749475449146,0.06205354645187568,0.019673051396762585,0.011610855387283542,0.026070071638562783,0.029541989358568287,0.06502270742793977,0.20195895595763141,0.11866257605316233,0.10310192311217582,0.20348623455949663,0.2496037624650017
0.1949118307771173,0.25286140079374625,0.09053841738295121,0.18904024045132622,0.1729756377889565,0.0631170321712821,0.019531137751040428,0.011774779932726841,0.025581520493396098,0.029290696882349053,0.06414888265873113,0.19959485053569606,0.11614523140503365,0.0998480812864593,0.2010585184548733,0.24504607203185752
0.19223886519558497,0.24663535895605715,0.0894781760919662,0.18675404711858673,0.17074847132496704,0.06419433683933005,0.019399323304426237,0.011938488608465121,0.025091424077162278,0.029067247556068727,0.06328108184227264,0.1973357715975088,0.11373218096378401,0.09665814747169686,0.19861197769099484,0.2405396853837407
0.18960380695937085,0.24045467149309863,0.08846843275083711,0.1845560790751553,0.1685272649836861,0.06528522375150268,0.01927739502346066,0.01210188734394411,0.024600431334256732,0.028870514041418917,0.06241892701776414,0.1951835164545675,0.11142388126163867,0.093532951897566,0.19614797535248576,0.2360856715830862
0.1870106010923444,0.2343244374719784,0.08750741050219148,0.18244380911518301,0.16631339928233502,0.06638949882358046,0.019165121391126073,0.012264885310634408,0.024109184011793586,0.028699337406104104,0.06156217205493194,0.19313952589901595,0.10922068669167828,0.09047325944246715,0.19366815509928206,0.23168509419806593
0.1844630581103716,0.22824966227177776,0.08659321569953511,0.18041476690832822,0.16410835405613344,0.06750698757426914,0.019062248069545103,0.012427395102503264,0.023618300538676525,0.028552537632287624,0.06071071034820206,0.19120487597951466,0.10712286244731493,0.08747977402174993,0.19117444745300402,0.22733908055795582
0.18196494332460075,0.22223525648813,0.08572382212964924,0.1784665802519673,0.16191368729278077,0.06863750449656099,0.018968492644013374,0.012589332444600438,0.02312836685198212,0.028428921319497053,0.059864572461341796,0.18938029107781928,0.10513058993446747,0.08455313778534523,0.18866905148661284,0.223048869766692
0.1795200465399289,0.21628601836695496,0.08489708065530818,0.17659699647816637,0.15973100551169575,0.06978081564774459,0.018883540363805944,0.01275061535818497,0.02263993959054406,0.028327285623108836,0.05902391435337666,0.18766616224610283,0.10324396492667902,0.08169392564091596,0.18615439415796323,0.21881583876579355
0.17713222993750882,0.2104066038175654,0.08411075758537866,0.1748038813156079,0.15756192681375752,0.0709366012005887,0.018807043031577143,0.01291116270685418,0.022153558333176126,0.02824641770952552,0.058188997203143855,0.1860625561083919,0.1014629889788845,0.07890263575213648,0.18363307025508338,0.21464150655822214
0.17480545307768733,0.20460148838085046,0.08336258381782359,0.17308519382512927,0.15540803768172295,0.07210443669049112,0.01873862093728169,0.013070892052045553,0.021669759153235383,0.02818508932128243,0.05736016015965381,0.18456921002768426,0.09978755485604668,0.07617967677250782,0.18110776646164461,0.21052751751647703
0.17254377507435942,0.19887492554733113,0.08265029724098291,0.17143893747465044,0.15327084455456882,0.07328380722156934,0.018677865217280046,0.013229716758800024,0.021189085131589427,0.02814204656434949,0.056537787566843786,0.18318551936669858,0.09821742696613996,0.07352535266167783,0.17858117340050092,0.20647560546859503
0.17035133504343458,0.19323090554940178,0.08197167053909085,0.16986308889169566,0.1511517211578419,0.07447414538907106,0.018624338248147836,0.01338754231392199,0.02071209287819748,0.028115998365694582,0.055722272341543685,0.18191053517565703,0.09675221912201512,0.07093984759692694,0.17605588967730557,0.20248754094977278
0.16823231289347498,0.18767311822666313,0.08132452126562693,0.16835550722949896,0.14905185318688963,0.07567487466557361,0.018577571954199717,0.013544261848155499,0.020239355031602475,0.02810561273432208,0.05491397722674762,0.18074298805421396,0.0953913769470129,0.06842321777160945,0.1735343271102799,0.1985650645899836
0.1661908733799192,0.1822049228480204,0.0807067029754846,0.16691384369576542,0.14697219061159894,0.07688544947722063,0.018537066746543623,0.013699751161321449,0.019771458986728274,0.02810952740003112,0.05411320003888621,0.1796813326768405,0.09413417607433543,0.06597539705343677,0.17101864339968373,0.19470981004721974
0.16423109705262195,0.17682932837125662,0.08011607804989457,0.16553550267256292,0.1449134319352166,0.07810538938385514,0.01850229478224978,0.013853864704047253,0.01930900234160805,0.02812637053803047,0.05332015758012398,0.17872379772035304,0.09297973917451362,0.0635962150283614,0.1685107355947878,0.190923220166884
0.16235690242005915,0.17154898830563164,0.0795504744175992,0.1642176903582361,0.1428760542382123,0.07933430534537007,0.018472708443909008,0.01400643491603467,0.018852585739607578,0.028154783540958416,0.05253499726708496,0.1778684324352476,0.09192706207354347,0.06128541920354657,0.16601229586150945,0.18720646904335797
0.16057197459638645,0.16636620839760224,0.07900763759501922,0.1629575216255151,0.14086037161969917,0.08057191628149059,0.018447751906153855,0.014157275769184428,0.018402803906729024,0.028193441934992243,0.05175782588100818,0.17711314553430657,0.09097503841550404,0.05904269531708269,0.16352489441814697,0.18356042192606117
0.1588797351026875,0.16128295777957657,0.07848520720170872,0.16175213485866718,0.13886659775433458,0.08181805446581875,0.018426873504281963,0.014306188781012787,0.017960235740103567,0.028241072867996726,0.05098873946990707,0.17645573261226635,0.09012247889594469,0.05686768394365169,0.16105005852183613,0.17998565758121374
0.15728337265804826,0.15630087871491125,0.07798074062776032,0.16059879292296148,0.13689490343961583,0.08307265873126887,0.018409537500533577,0.01445296950686294,0.017525435384261778,0.028296467779109786,0.05022784812341424,0.17589388908696008,0.08936812402888605,0.05475999296594896,0.15858933803557912,0.17648253613609474
0.15578590929207062,0.15142129961182946,0.0774917712191458,0.15949496476469835,0.1349454673599196,0.08433575498923526,0.018395234127325195,0.01459741371435488,0.017098928149933253,0.028358489152781392,0.04947529496353731,0.17542520667429934,0.08871064973146088,0.052719205665831104,0.15614435639240518,0.1730512764284213
0.15439026576753825,0.1466452551000997,0.07701587345604279,0.15843838353294687,0.1330185183400837,0.08560742415763922,0.01838348685674717,0.01473932294089937,0.016681213253189327,0.028426070641694615,0.04873126926323023,0.17504715257659884,0.08814866538209565,0.050744884386205606,0.1537168463121603,0.16969202401602101
0.15309931311830532,0.14197351006740971,0.07655072113593167,0.15742707833907563,0.13111436752089167,0.0868877582253648,0.018373856012445313,0.01487850913286073,0.01627277015846956,0.028498210280250673,0.047996013870624646,0.17475703176694893,0.08768070440893905,0.048836569914815095,0.15130867014899851,0.16640490603663005
0.15191590890176518,0.13740658254957167,0.07609413469781388,0.15645937814329453,0.129233429165937,0.08817680581926186,0.01836593808698661,0.015014798080865588,0.015874064193796777,0.028573956967530185,0.04726982734563575,0.1745519340388029,0.08730520787025829,0.046993776933399754,0.14892182524160646,0.16319007219300755
0.15084291766861024,0.1329447623791505,0.0756441154972326,0.1555338876943332,0.12737622919639235,0.08947451756798958,0.018359360429906803,0.015148031400430603,0.01548554987697741,0.02865239083955845,0.046553061394349636,0.1744286790860633,0.08702050187340807,0.04521598604936332,0.1465584350915739,0.16004772170636603
0.14988321599157806,0.12858812387607876,0.07519886554894016,0.1546494368662172,0.12554340102875858,0.09078071928042789,0.018353771299840404,0.015278066859554799,0.01510767195397126,0.028732598541430135,0.045846114306156545,0.1743837943140329,0.08682477389053873,0.04350263307231476,0.14422072759649163,0.15697811659073443
0.14903968312144344,0.12433653146566424,0.07475679193876503,0.15380500606167974,0.12373566883329735,0.09209513370563965,0.018348825600073473,0.01540477692273241,0.014740864378068914,0.02881364802272528,0.04514942115553656,0.17441354973070194,0.0867160614317201,0.04185309645738191,0.14191100190275724,0.15398158203308066
0.14831517892196625,0.12018963776988811,0.07431649575715113,0.15299963152657742,0.1219538189031921,0.09341743632251405,0.018344169077210325,0.015528045460300469,0.0143855476089631,0.028894574862902693,0.044463441527443755,0.17451403140407992,0.08669226338043567,0.0402666862018919,0.13963158571047546,0.15105849500599539
0.14771251116108175,0.11614687702664941,0.07387674602431137,0.15223229539977834,0.1201986603877042,0.09474731763888336,0.018339429146724526,0.015647762658591035,0.014042124727465202,0.02897438974582098,0.04378864547107811,0.17468122152529283,0.08675116754589712,0.03874264115727333,0.1373847850544219,0.1482092624864152
0.14723439450190962,0.11220746411403104,0.07343643966686987,0.15150182056656106,0.1184709771565751,0.09608453900998136,0.018334220071221295,0.015763818255018592,0.013710977335071218,0.02905210177660639,0.043125498294977,0.17491107134878026,0.08689048117480273,0.03728013844086655,0.1351728286996023,0.1454342908086834
0.14688340365321745,0.10837041052113842,0.07299454917284419,0.15080681988088881,0.11677147298989063,0.0974289782442953,0.018328160467777518,0.01587609330798885,0.013392463097648818,0.02912674536828622,0.04247444470316816,0.17519956315377544,0.08710785766328125,0.0358783097193671,0.1329978093294107,0.14273394775441345
0.1466619231215549,0.1046345571042281,0.07255006009251934,0.150145733196404,0.11510071611808674,0.09878066222704965,0.018320894976942524,0.015984451623331324,0.013086916305247654,0.029197404104237552,0.04183589265470569,0.17554275779789913,0.08740091728016873,0.03453625727902336,0.13086162976300428,0.14010851899179003
0.1465721015506959,0.10099861423967717,0.07210190883446999,0.14951692127043564,0.11345910033196235,0.10013978436762039,0.018312114701779,0.016088734189408038,0.012794650460477494,0.029263229891095643,0.04121019739673034,0.1759368249851158,0.08776726031480366,0.033253067224918484,0.12876597547966687,0.13755816044208863
0.14661582954716923,0.09746120194522868,0.07164894885501728,0.1489187644081734,0.11184684355923451,0.10150670540656222,0.01830157450978945,0.01618876012500046,0.012515960618693754,0.029323456730530058,0.04059764826788743,0.1763780540287814,0.08820447135238232,0.032027819382379086,0.12671232961652504,0.13508284935174525
0.1467947527659141,0.09402088674761297,0.07118996840472051,0.14834974254363809,0.11026402400441909,0.10288193696689996,0.018289106177443153,0.01628433361148216,0.012251124085114804,0.02937740875532097,0.03999846432843357,0.17686284364149363,0.0887101137578854,0.030859593634339648,0.12470201858831656,0.1326823449066458
0.1471103069075905,0.09067621331323111,0.07072374760723579,0.14780849169626809,0.10871063174868119,0.10426610815908122,0.01827462657349953,0.016375253129375097,0.012000399410352075,0.029424502474159973,0.03941280202004856,0.17738767011261558,0.08928171390808992,0.02974747259937653,0.1227362641880112,0.1303561787301368
0.14756375427620322,0.08742572912237094,0.07024912501167635,0.14729383424484593,0.10718661681385731,0.10565991649658166,0.018258140347020387,0.01646132027551624,0.011764025155128694,0.02946424343296058,0.038840770111025866,0.17794903412451818,0.08991673523731374,0.02869054072896429,0.12081622982856527,0.1281036836116824
0.14815621383552147,0.08426800084006145,0.06976505675755033,0.1468047819800312,0.10569192781040072,0.10706406528817716,0.018239736892665632,0.016542347235015457,0.011542221081285466,0.029496217717393598,0.038282445655806345,0.17854338738758183,0.09061254364818191,0.027687880071421356,0.1189430584578323,0.1259240437202439
0.1488886838611534,0.08120162149930486,0.06927066356703858,0.1463405124867199,0.10422654029490058,0.10847919197090108,0.018219581688970532,0.01661816252389459,0.01133519311257835,0.029520078887387835,0.03773788873111475,0.17916704121354832,0.09136637413916511,0.02673856310572592,0.11711790153108334,0.12381634629442657
0.14976205695392522,0.07822520814029396,0.0687652634229068,0.14590032095158062,0.10279047450782457,0.109905804108342,0.018197902421682063,0.01668861468147614,0.011143140763921835,0.029535531050098224,0.03720715558124789,0.17981607561864607,0.09217532011282056,0.025841643182861047,0.11534193872400311,0.12177962781187422
0.15077712743082458,0.07533739011181101,0.06824838860201887,0.1454835508786177,0.10138380268475758,0.1113442552990789,0.018174970591072516,0.016753573672624495,0.010966265081186522,0.02954230884738256,0.03669030975009471,0.18048629981800268,0.0930363579656383,0.024996143859025915,0.11361638836166298,0.11981291351893211
0.15193459131817244,0.07253678880286432,0.06771978662784317,0.14508950833365233,0.10000664660095748,0.1127947763039567,0.01815107953986967,0.01681292985679131,0.01080477599558559,0.029540155162910663,0.03618743075602025,0.18117330024079523,0.09394639430978942,0.024201050883050506,0.11194250881870031,0.11791524927949211
0.15323503933660088,0.06982199009504989,0.067179405607538,0.1447173711755452,0.09865916639089442,0.11425753745657788,0.018126522260960988,0.01686659049053252,0.010658898432208058,0.02952879799466254,0.035698619890500424,0.18187254792669097,0.09490231662658856,0.023455312080347127,0.1103215914060584,0.11608572481832331
0.15467894339091232,0.06719151223777067,0.06662736526008546,0.1443661234280101,0.09734154196028802,0.11573271146891215,0.01810157783649905,0.016914473848675848,0.01052887657805035,0.029507931570825627,0.03522400279880706,0.1825795167933521,0.09590103879643423,0.022757846114098444,0.10875494549382447,0.11432348760126203
0.1562666371648635,0.06464377851994234,0.06606391566303105,0.14403454988775988,0.09605394846642813,0.1172205251973874,0.01807651463341351,0.016956501171245884,0.010414975831644748,0.02947721067732525,0.03476372862953954,0.18328979199733136,0.09693953835468448,0.02210755529038123,0.1072438768220065,0.1126277468204983
0.15799829147820293,0.06217711170327408,0.06548938630471532,0.14372129037066214,0.09479652738333519,0.11872129862750443,0.01805160745278909,0.016992586761943616,0.010317482114066608,0.029436261603277315,0.03431796570948959,0.18399916270804448,0.09801488258152885,0.02150333757478088,0.1057896601160303,0.11099776723992563
0.1598738850987532,0.05978975736748277,0.06490412840210483,0.14342491642915642,0.09356935460395861,0.12023547027814252,0.01802715887238257,0.01702262776328258,0.010236698405822649,0.029384702328195997,0.033886893894652145,0.18470369416538518,0.09912424099567738,0.020944096114456398,0.10439350724653046,0.10943285299776807
0.161893171723915,0.05747992278852439,0.0643084577775985,0.14314399877052192,0.09237240688552391,0.12176360910254827,0.01800351848648365,0.01704649787254213,0.01017293856994216,0.029322163379363105,0.03347069394707,0.1853997746080236,0.10026488246968944,0.02042874589294397,0.10305653225002412,0.10793232184812533
0.16405564483597565,0.05524581490949027,0.06370261679437501,0.14287715490797906,0.09120552977228322,0.12330641366904103,0.017981098307415812,0.017064049051678274,0.010126518712547411,0.02924830639906142,0.03306953447037832,0.18608413364957718,0.10143415598573605,0.01995621729525242,0.10177971500775461,0.10649547072878986
0.1663605077037144,0.05308567131741146,0.06308677438880683,0.14262307479018618,0.09006841614393618,0.12486469987029766,0.017960383878115358,0.017075120058504294,0.010097748141558937,0.02916283995919902,0.03268355708655232,0.18675382990992798,0.10262945495705349,0.019525456517482796,0.10056387049523642,0.10512153394282985
0.16880666201821803,0.05099778317466162,0.062461060358528026,0.1423805233655523,0.08896060640592914,0.12643937861176757,0.01794194088495395,0.0170795471423486,0.010086925442403138,0.029065532195950115,0.032312861816363114,0.18740620712660086,0.10384816599471153,0.019135422909788452,0.09940963806350203,0.10380963623369567
0.17139272095918387,0.04898050956429715,0.061825611198853284,0.14214832026015678,0.08788151006276641,0.12803142489369135,0.017926417284588544,0.017077173762538377,0.010094343647183588,0.02895621987254703,0.03195749771121501,0.18803881950547355,0.10508760608773438,0.018785083486085107,0.09831749777040852,0.10255875096023268
0.17411703662534198,0.047032283221137595,0.061180610655009814,0.14192529792940714,0.08683043685719391,0.12964183949477315,0.017914541154339842,0.01706785831789597,0.010120301573532777,0.028834813521500916,0.031617463692132725,0.18864932863398523,0.10634496605250693,0.0184734049616888,0.09728780206289019,0.1013676855204676
0.17697772954523971,0.04515160809626351,0.06052632035158601,0.14171024073735614,0.08580662771187872,0.13127160417846195,0.017907114633807245,0.017051479480078607,0.010165116069163085,0.028701298377115214,0.03129271822520913,0.18923537577562313,0.10761729407300359,0.018199343785774553,0.09632080788361985,0.10023510597630295
0.17997271582281726,0.043337049610430514,0.059863100005868544,0.14150181095908032,0.08480928264051216,0.13292163106594757,0.017905004442978562,0.017027938846770153,0.010229132768111118,0.028555730894168643,0.03098319169047138,0.18979444864690545,0.1089015356101957,0.017961836015092738,0.09541670402805578,0.09915958489811541
0.18309973096523077,0.04158721876958089,0.05919141727762333,0.1412984834728138,0.08383758511764144,0.13459270662871628,0.01790912954061379,0.01699716076978883,0.010312734636669763,0.02839823076595908,0.030688797134737624,0.19032379784407077,0.11019460687759468,0.01775979183238491,0.09457563326366868,0.09813965053768636
0.18635634940609916,0.039900751531388126,0.058511847796408896,0.14109852807370227,0.08289072230274877,0.13628543626319972,0.017920446531005125,0.01695908935969697,0.010416347730140591,0.02822896850687779,0.030409438319562325,0.19082045798128522,0.11149347166554191,0.017592098715371957,0.093797708906968,0.09717382908453602
0.1897399987212963,0.03827628492381998,0.0578250663171656,0.14090005643372797,0.08196790041589855,0.13800020971873095,0.01793993344340917,0.016913682813485046,0.010540443731678267,0.028048148847833493,0.03014501505962281,0.19128136197362644,0.11279520913045729,0.017457631287132975,0.09308302572872909,0.09626067860300794
0.19324796754570917,0.03671243171217002,0.05713183027165302,0.14070110540197325,0.08106835448362092,0.13973720864431174,0.01796857250216511,0.01686090534650315,0.010685539032747469,0.027855990398090946,0.02989542604201564,0.19170348896067316,0.1140970688118914,0.01735526280223831,0.09243166521894229,0.09539881368886821
0.19687740624652145,0.03520775890098292,0.05643295720081397,0.14049972082804416,0.08019135164104742,0.14149645275922004,0.01800733397961712,0.016800717126263316,0.010852190331037249,0.0276527029893384,0.02966056947323584,0.19208400405484446,0.1153965097352124,0.017283875384682422,0.09184369538763844,0.09458692035557593
0.20062531949865592,0.03376078052743773,0.055729297671504266,0.14029402748835781,0.07933618721733206,0.143277862946134,0.018057166667159525,0.016733063616438906,0.011040986950892421,0.027438468542290134,0.029440342001234694,0.19242037632548833,0.1166912212138341,0.0172423682357799,0.09131916540455125,0.09382376112344552
0.20448855004614222,0.03236996958714339,0.05502170530591367,0.1400822809866265,0.07850217297170833,0.14508132595325368,0.01811899973202433,0.01665786835983731,0.011252540314647626,0.027213436008637012,0.029234636395915177,0.19271046959812896,0.11797912383954069,0.017229663507510682,0.09085809548922029,0.09310817070455564
0.20846375312214413,0.03103378032710501,0.05431100549326766,0.13986289838997426,0.07768861710521587,0.14690675549133145,0.018193753583755502,0.0165750336817578,0.011487471190872126,0.0269777347089831,0.02904333844284736,0.19295260185198387,0.11925835009469435,0.017244709659649957,0.09046046255376737,0.09243904302435467
0.2125473612403763,0.029750669949161125,0.05359796546137362,0.1396344654463803,0.07689479605203317,0.14875414690062944,0.018282353350202035,0.016484449032157292,0.01174639686450689,0.026731497851697344,0.02886632342056079,0.19314557040076305,0.1205272049832274,0.017286482241868364,0.09012618217340433,0.09181531057892797
0.21673553935913642,0.028519116034797044,0.05288327267484193,0.13939571945386642,0.07611991887223733,0.1506236223687984,0.018385741205259154,0.01638600239716237,0.012029923465188228,0.026474886188095154,0.028703452407036097,0.19328864158610187,0.12178410800403283,0.017353982155240127,0.08985508751477869,0.0912359172873261
0.2210241313642324,0.027337629523213964,0.052167530583046955,0.1391455081516956,0.07536309264013473,0.15251546366596266,0.018504886705627468,0.016279591118159135,0.012338647622314241,0.02620810786928035,0.028554568515979182,0.19338150533551307,0.12302751863062812,0.017446231543923663,0.08964690588939853,0.09069978606520672
0.22540860833863705,0.02620476327316935,0.05145127206670538,0.1388827263067656,0.07462331022231188,0.1544301295516203,0.01864079498756274,0.016165130879346474,0.012673164985951169,0.025931433451153587,0.028419493019879682,0.1934241965634222,0.12425584817532599,0.017562267543012933,0.08950123397949199,0.09020578233403327
0.22988404523672626,0.025119116403018945,0.050734980369066485,0.13860623290140034,0.07389947449268623,0.1563682554123991,0.018794512728173306,0.016042562443927325,0.013034079813257455,0.025645205235326124,0.02829802119546624,0.19341698694169612,0.12546737465712912,0.01770113416175098,0.08941751647334124,0.08975267461215884
0.23444514386576704,0.024079334729323262,0.05001910841638464,0.1383147625892045,0.07319044635707059,0.15833063331379923,0.018967131817035614,0.015911855803740816,0.01342201231739941,0.025349840441088532,0.028189917645073503,0.1933602519473385,0.1266602039499217,0.01786187261418897,0.0893950382699735,0.08933909854605983
0.2390862880001782,0.023084107712833347,0.04930409403184963,0.138006870195145,0.07249509620024014,0.16031817148637426,0.019159790717077508,0.015773011504234193,0.01383760295284295,0.025045828055150633,0.028094910815843987,0.19325431922461167,0.12783230658790384,0.018043510580621966,0.08943293550305187,0.08896354127794467
0.24380160717782737,0.022132162375342986,0.048590371146853384,0.13768094690667018,0.07181234988693778,0.16233183329845538,0.019373673526034363,0.015626059016131316,0.014281513472156625,0.02473371957508227,0.028012686749046344,0.19309932503375765,0.12898160429139285,0.018245052584277666,0.08953021782889704,0.08862435749089251
0.24858503941063825,0.021222254677772178,0.04787837726118028,0.13733530026599067,0.07114122654795935,0.16437255695814662,0.019610006788632384,0.015471052146996442,0.014754424834209868,0.024414114221671186,0.027942883774597284,0.19289514581958309,0.13010606395683222,0.018465476268076104,0.08968579201652446,0.08831980645060362
0.2534303899279397,0.020353158856011782,0.047168557510742996,0.13696825634363768,0.07048086573222084,0.16644116004200288,0.01987005415981296,0.015308061619285883,0.015257032282263052,0.024087639519115717,0.027885091893477727,0.19264144993319465,0.1312037818696163,0.01870373725780266,0.0898984833190219,0.08804809313522081
0.25833138285565516,0.019523655203567882,0.04646136576717229,0.1365782544508053,0.06983054204745222,0.1685382506552236,0.020155109081607787,0.015137165083669057,0.01579003812412494,0.02375492840851453,0.027838858897274978,0.1923378276815175,0.1322730543930593,0.018958779401703315,0.09016705418769531,0.08780740692296406
0.2632817026150317,0.018732516775066956,0.04575726321917691,0.13616392436362781,0.06918966610813014,0.17066419260681234,0.0204664857071667,0.01495843539205111,0.01635414291623901,0.023416597233484427,0.027803701058379773,0.1919839307239842,0.13331243198460577,0.019229545890732738,0.09049021994863174,0.08759595682109343
0.2682750218239208,0.017978497107077777,0.045056714874263035,0.135724141929919,0.06855777140733396,0.17281915068568365,0.02080550837759891,0.014771930454542727,0.01695003586125751,0.02307323500910939,0.02777911527752813,0.19157959156841456,0.13432075397413273,0.019514989579082296,0.09086666111803665,0.08741200227748322
0.27330501262319945,0.017260324533856997,0.044360184376465245,0.1352580600778034,0.06793448756831566,0.17500318328873243,0.021173500020928934,0.01457769071371822,0.017578385549642465,0.022725410976485352,0.02776459130379063,0.19112491782023885,0.1352971622414202,0.0198140821860419,0.0912950320864124,0.08725387855258908
0.278365338648472,0.016576707316970002,0.04366812746904452,0.13476511357060136,0.06731950124789018,0.17721633577778617,0.021571769887113568,0.014375746827944102,0.018239832917629765,0.02237369395666215,0.02775962340558167,0.1906203583864151,0.13624109273658808,0.020125822060326693,0.09177396595126318,0.08712001559343528
0.2834496253341017,0.01592634654965657,0.04298098435082162,0.13424499727178135,0.06671250669646839,0.17945871485548687,0.0220016018297461,0.014166133053401746,0.01893498800752007,0.022018672470847576,0.027763720798008762,0.19006674023620368,0.13715224467770318,0.020449240192119033,0.09230207532313195,0.08700894936503521
0.28855140687620817,0.015307950806091397,0.04229917109247245,0.1336976191100408,0.06611315385013677,0.1817305382396493,0.02246424637153366,0.013948900661797261,0.019664429673429462,0.02166097062881889,0.02777641610359294,0.18946527571807273,0.13803052820405434,0.02078340416934543,0.09287794897101358,0.0869193246789665
0.2936640489881329,0.014720249563849796,0.04162307020628606,0.13312303028076625,0.06552101557098068,0.18403215549453436,0.02296091978352509,0.013724129105034765,0.020428705471184895,0.0213012587607552,0.02779727114675056,0.188817541753201,0.13887599222098526,0.021127419796404714,0.09350014421253448,0.08684988872915102
0.2987806475417117,0.014162004749855276,0.040953020409958,0.13252133640656993,0.06493559551188292,0.1863640379761608,0.023492809285787942,0.01349193426865458,0.021228329887646318,0.020940258398949946,0.027825879461290483,0.18812543340369753,0.139688735090984,0.02148043012888401,0.09416717499516594,0.08679947480846448
0.30389391432650764,0.013632020100569561,0.04028930560022985,0.1318925957391878,0.06435637198715409,0.18872673830231568,0.02406108034706981,0.013252473325833552,0.022063781059767123,0.020578741571433433,0.027861865024331172,0.1873910952891485,0.14046880164753608,0.021841611729683522,0.09487749566150036,0.08676697603295515
0.30899609322489124,0.013129148069326855,0.039632144545593495,0.13123672720183657,0.06378285409578346,0.19112082233884903,0.024666883306201124,0.013005945919225768,0.022935497535389714,0.020217524720674392,0.027904876914186926,0.1866168350538143,0.14121608543353656,0.02221016802291661,0.09562948044867646,0.08675130932760321
0.3140789636857096,0.012652294068868596,0.03898168619076338,0.130553475481022,0.06321463327290518,0.19354677913539275,0.025311358680343895,0.012752591643883869,0.023843876690922045,0.019857457886312716,0.02795457981331235,0.18580502354221107,0.14193028449602932,0.022585319713580226,0.09642139884321478,0.0867513704025035
0.31913394024589337,0.012200417906486275,0.038338014795940664,0.12984245786222828,0.06265142504675135,0.19600491741343332,0.025995641183772414,0.012492684061341002,0.024789274699976063,0.019499410073822367,0.028010640525139175,0.18495798651660084,0.14261094225081075,0.022966292353307823,0.09725138738206594,0.08676598340081781
0.32415222283794504,0.011772532352150747,0.03770116285923028,0.12910325840326334,0.0620930993757457,0.19849527136826092,0.026720862513178706,0.012226521720019343,0.025772006357680174,0.01914425195651007,0.02807271092743721,0.18407789355212814,0.14325754233823004,0.023352301263053425,0.09811742355179327,0.08679386005519765
0.3291249554532902,0.011367698874024546,0.037071126656451674,0.1283355228511806,0.06153969857866225,0.20101755626681297,0.027488152964000683,0.01195441686709434,0.026792343265678028,0.018792839250506087,0.028140410901821948,0.18316666305454674,0.14386960917633887,0.023742536524592225,0.09901731579765435,0.0868335925305907
0.3340433761444042,0.010985020676469767,0.036447881516451244,0.12753903661117535,0.06099144251410782,0.20357119006755123,0.0282986419317925,0.011676682983439072,0.027850510401409373,0.018446004201861353,0.02821332077288485,0.18222592329891424,0.14444679516112552,0.024136155798340636,0.09994871866366958,0.08688368810182771
0.33889895001586495,0.010623633277521966,0.03583139590880269,0.12671378261695013,0.06044872127494827,0.20615534480031514,0.02915345733036851,0.011393624229412154,0.0289466832682052,0.01810456000047752,0.028290989970012954,0.18125704908495555,0.14498895094475048,0.024532290817255987,0.10090916508153522,0.08694262686310629
0.3436834767018572,0.01028269295977387,0.035221643675814686,0.12585997705050034,0.05991207620765836,0.20876898370059452,0.030053723932278172,0.011105531926087608,0.030080988416143314,0.01776931320680089,0.028372956531532035,0.1802612411283229,0.14549617606091514,0.024930063631688315,0.10189610330569844,0.08700892112014072
0.34838916411134474,0.009961363755272082,0.03461861371964626,0.12497808201005109,0.05938217052524632,0.2114108684557459,0.031000560614471085,0.01081268984684922,0.031253507670115914,0.01744107594766533,0.028458768180822408,0.17923960631287542,0.14596884805928265,0.02532860510957163,0.10290693353368538,0.08708116820770971
0.35300866099384354,0.009658805954354028,0.034022316497967595,0.12406879536646567,0.05885975114533015,0.2140795357050032,0.03199507647899377,0.010515383778869191,0.032464284064337094,0.017120674091076562,0.028548000912845126,0.17819322490220732,0.1464076292625234,0.025727072204992197,0.10393904294682689,0.08715809421428788
0.35753504216811904,0.009374172428892597,0.03343278679501992,0.12313301912564079,0.058345603650580814,0.21677324544220994,0.03303836582016798,0.010213910188453903,0.03371332747715321,0.016808950781659816,0.028640273975883195,0.17712320433129466,0.14681345122236858,0.02612466297833617,0.104989837755603,0.08723858642551006
0.3619617420633691,0.009106616078906749,0.03285008241720532,0.12217180858023473,0.057840502518574734,0.21948992051881183,0.03413150192926976,0.009908582302770242,0.03500061860882403,0.016506765409585497,0.028735260352509624,0.17603071973856468,0.14718747788002237,0.026520628537066212,0.10605677071956737,0.08732171276112849
0.3662824345109497,0.008855303946411243,0.03227427870128652,0.12118630535060326,0.05734516560624173,0.22222712251372406,0.03527552976599706,0.009599733611683207,0.0363261101605272,0.016214988473470044,0.028832692074822128,0.1749170418062284,0.14753104929141259,0.026914281174690125,0.10713736255218706,0.08740672705298524
0.3704908594147521,0.008619431946102308,0.031705458996828965,0.12017765805310378,0.056860234541105316,0.22498209439854874,0.03647145758008311,0.00928771901482669,0.03768972422113763,0.015934493136618367,0.028932359987702546,0.17378355274854332,0.1478456085250688,0.027304998140746422,0.10822921563357532,0.08749305966176878
0.37458059989362996,0.008398237889146874,0.031143701563155095,0.11914693780553165,0.05638629410675107,0.2277518468039656,0.03772024762986558,0.008972914017619725,0.0390913451498466,0.015666144576813708,0.029034107881444077,0.17263175143364431,0.14813261495231855,0.027692220666787375,0.10933001855438156,0.08758029361925497
0.37854485066530663,0.008191012294168524,0.03058906357244067,0.11809507027802928,0.05592391534396399,0.2305332467833164,0.039022806209280836,0.008655712500094058,0.04053080806823519,0.015410789819786707,0.029137821230167903,0.1714632486647259,0.1483934476052834,0.028075448089324266,0.11043754021321707,0.08766812716970143
0.3823762963688634,0.007997106548265057,0.030041565217391653,0.11702281827490583,0.05547370020400439,0.23332308817237457,0.04037997398051201,0.008336523635928282,0.04200788662977206,0.015169253122803778,0.029243411073417776,0.17027975360696784,0.14862931412953337,0.02845422713611029,0.11154961249312541,0.08775632423024544
0.38606719948449925,0.007815938070825519,0.029501181586570273,0.11593082453582249,0.055036319482290416,0.23611813415780464,0.04179251925647215,0.008015768525498327,0.04352228841580154,0.014942339319986089,0.02935079384511744,0.16908305225669767,0.14884120475723048,0.028828136663349754,0.11266410094742105,0.08784465486127667
0.38960965115100543,0.007646992243630265,0.028967848284195956,0.11481968438548361,0.05461254286244101,0.23891512404818055,0.04326113633713619,0.007693877032597961,0.045073663093131364,0.014730840934261033,0.02945986933902234,0.16787497873796225,0.14902991922050693,0.029196768337249063,0.11377886342081255,0.08793283185676141
0.39299586805709286,0.007489821000455518,0.028441477099299867,0.11369001534959242,0.05420326022823943,0.241710738429447,0.044786447515203096,0.007371285192111179,0.046661618887328705,0.014535543614902982,0.02957050349819971,0.1666573801060253,0.14919614342096338,0.029559704180663685,0.11489169709822354,0.08802046252789651
0.39621847061774895,0.00734403811451149,0.02792197364675183,0.11254251234080609,0.05380949375612459,0.24450151981686274,0.04636900562171732,0.0070484334019607,0.04828573999482433,0.014357227950914318,0.029682525405078684,0.16543207526059234,0.14934053427949515,0.029916495709232768,0.11600027990391049,0.08810704182465012
0.39927072105101086,0.0072093113766026114,0.027409252684912983,0.11137798664969181,0.05343240067486058,0.2472837629030908,0.04800929532505425,0.0067257654462128,0.049945601057777796,0.014196667620256608,0.02979574031979789,0.16420080854168345,0.14946379366785634,0.030266655514825762,0.1171021278195204,0.088191991057125
0.40214670718642054,0.0070853520125945665,0.02690325000126238,0.11019738782267764,0.053073266958076855,0.25005343270373165,0.0497077327056662,0.006403728236724316,0.05164077676272111,0.014054624304850109,0.029909950349751278,0.16296519860911016,0.1495667275360815,0.030609667771968437,0.11819459629905663,0.08827471811814792
0.4048414601133941,0.006971901835265327,0.026403930370473477,0.10900180835514156,0.052733492580359136,0.2528061868255494,0.051464662962189045,0.006082772025635807,0.05337084490518956,0.0139318416142428,0.03002497430835407,0.16172668329527776,0.1496502883798304,0.030945010627738533,0.11927492956836752,0.08835467575357586
0.40735099680038306,0.00686871891978388,0.025911291253337458,0.10779247192722799,0.0524145692978653,0.25553751438725136,0.0532803562275776,0.0057633507438230105,0.05513538171519473,0.013829042910737607,0.03014066376186859,0.16048646589519058,0.14971559985749466,0.03127218009281791,0.12034033398100868,0.088431409636967
0.4096722824369466,0.006775564796351247,0.02542536208921155,0.1065707066242713,0.05211805219222821,0.2582429328611006,0.055155001612259405,0.005445922069417176,0.05693394881542728,0.013746936042485787,0.030256914547774284,0.15924548121544352,0.1497639630629858,0.03159071129802778,0.12138805327175271,0.08850459421795548
0.41180311129451835,0.0066921994096697714,0.024946199246083274,0.10533790518410673,0.05184552642970856,0.260918185296514,0.05708869973215368,0.005130946828676221,0.05876607182488959,0.013686222111275898,0.030373673260470288,0.15800440185962505,0.1497968446642763,0.031900196150211134,0.1224154372582522,0.08857405487797945
0.41374190916137565,0.006618387044572224,0.024473876929315012,0.10409547478137025,0.051598570830174564,0.26355941107816816,0.05908145410979532,0.004818887377261316,0.060631213395254305,0.013647603674145787,0.030490938427104205,0.15676368255375872,0.14981584780578885,0.032200296551149483,0.1234200005523222,0.08863977556094708
0.4154874646459967,0.006553908448699856,0.02400847459916792,0.10284477918473289,0.051378721911960495,0.26616327525907313,0.061133162118259324,0.0045102049070000335,0.06252875122519036,0.013631790254558178,0.030608756333444523,0.15552362087533067,0.14982266731922322,0.03249075251457265,0.12439946813954843,0.08870189172327446
0.4170386005994754,0.006498572805984787,0.02355006168372988,0.10158707996723174,0.051187448318469,0.2687270438744512,0.0632436068335648,0.004205356925927634,0.06445797580665785,0.01363950052837897,0.030727211701367368,0.15428441793504458,0.14981903136636787,0.03277138472239105,0.12535180516543032,0.08876066913719999
0.4183938393043993,0.0064522272121550215,0.023098682560108948,0.10032349492717103,0.05102614735807086,0.271248596081985,0.0654124513325143,0.003904797744688474,0.06641811140818356,0.013671460895199819,0.030846413657608245,0.15304623398077924,0.1498066321226535,0.033042091292919566,0.12627522890546208,0.08881646974895403
0.41955120764403203,0.0064147633264484884,0.022654349005575017,0.09905499549314553,0.050896163138711495,0.27372636819643825,0.06763923521885758,0.003608983668480402,0.06840834915137131,0.013728400513545812,0.03096647765724855,0.15180923743419075,0.14978704847636556,0.03330283878043995,0.1271682016612442,0.08886970640143181
0.42050831134191907,0.006386121058629001,0.022217045273583716,0.09778244309465005,0.050798812982951934,0.27615922934992726,0.06992337112683905,0.0033183814728079994,0.07042788063128445,0.013811043230422353,0.031087504231627306,0.15057364601914733,0.14976167152273379,0.03355364767530028,0.1280294041719843,0.08892078874139007
0.4212626266132361,0.006366289337039278,0.02178674171744405,0.09650664136666832,0.050735410895172445,0.2785462932585696,0.07226413975859194,0.0030334778482869703,0.07247592726182078,0.013920098647498609,0.031209558680689798,0.14933975883925749,0.14973166111501823,0.03379457291456956,0.12885769001271805,0.0889700645110517
0.42181185413594,0.006355304176250145,0.021363409268404385,0.0952283843135222,0.05070728469415132,0.2808866779624758,0.07466068518016386,0.002754788595806562,0.074551763283083,0.014056257758631343,0.03133266190707178,0.14810797849336937,0.1496979576443953,0.034025680132879536,0.12965202231840717,0.08901776992008527
0.4221542404491569,0.006353244408019092,0.020947030998827804,0.09394849417727719,0.0507157864086854,0.28317927274884414,0.07711201367909568,0.0024828668804030792,0.07665473065991539,0.014220196860339146,0.031456798875971616,0.146878822570484,0.1496613373387889,0.034247019457042935,0.13041139498069046,0.08906401320307691
0.42228883860329636,0.006360225546058484,0.02053760996450851,0.0926678479177176,0.050762295881261583,0.2854226455480393,0.07961699755503714,0.002218309848250772,0.07878424447938841,0.014412586617513145,0.03158193797297372,0.14565292413165473,0.14962247950304552,0.03445860350239196,0.13113474140818923,0.08910880072812193
0.4222156962520183,0.006376392317030668,0.020135173096930616,0.09138739174497892,0.050848217875934756,0.2876151703962831,0.08217438280358118,0.0019617629834825295,0.0809397879021027,0.014634100866859769,0.031708050975401164,0.14443102106348027,0.14958202709237298,0.03466040114564047,0.13182084827227417,0.08915208569469084
0.4219359629747746,0.006401910405545903,0.01973977115086565,0.09010814368410572,0.050974973321479454,0.289755289876692,0.08478279933290006,0.0017139217305351718,0.08312089621704602,0.01488542261473909,0.031835129536757635,0.14321393447526723,0.1495406359686512,0.03485235157057146,0.13246831805378764,0.08919381573284049
0.4214519125254413,0.006436957933009103,0.019351474926135037,0.08883118467231814,0.05114398561764682,0.29184178485336665,0.08744077282109856,0.0014755301219307301,0.08532713006833662,0.015167246518296294,0.031963197352200906,0.14200253660870787,0.14949901149406594,0.03503438953848567,0.13307560864780202,0.08923397085955974
0.4207668797441835,0.006481717126631897,0.018970368171273434,0.08755763917429661,0.051356663170522475,0.2938739981921042,0.09014673732574305,0.0012473764076631844,0.08755803843802736,0.015480277497653286,0.03209231739278427,0.14079770903151315,0.1494579315452925,0.035206471125386225,0.13364112225203528,0.08927259034580637
0.4198851158841746,0.006536367035281914,0.01859653774040891,0.08628864672892518,0.05161437948709068,0.29585199869204076,0.09289904755865193,0.0010302859492064807,0.08981311245555912,0.01582522546088368,0.03222259384748721,0.13960029218873712,0.14941825542708642,0.03536859589624767,0.13416330066083318,0.0893097875575419
0.4188115699366853,0.006601079131575526,0.0182300617112593,0.0850253261953792,0.05191845224065643,0.2977766754547248,0.09569598957845307,0.0008251118850227266,0.09209173752746846,0.01620279646167825,0.03235416867923336,0.1384110276791897,0.14938091852730892,0.03552082457643781,0.13464071012288087,0.08934575235850183
0.4175516070319504,0.006676017124085421,0.017870997883899953,0.08376873473292047,0.05227012365942234,0.29964975768325136,0.0985357885455831,0.0006327249308747246,0.0943931652873992,0.01661368226817933,0.03248721296859789,0.1372304975266687,0.149346912898233,0.035663291467605766,0.1350721124682199,0.08938074118668463
0.41611067798954343,0.0067613397464744845,0.01751937832801278,0.08251982736253749,0.05267054691148084,0.30147376006370374,0.10141661214395879,0.00045400586156663,0.09671652434407796,0.017058553713421507,0.03262191347280463,0.13605907655449515,0.14931725429073403,0.03579621107686158,0.13545651978431253,0.08941505542808471
0.41449398164015666,0.006857204068585236,0.017175213713073876,0.08127943209437989,0.053120782499685215,0.30325185899667106,0.10433656831346802,0.000289844840188892,0.09906086263856827,0.017538062733389814,0.032758455056247984,0.13489692386548227,0.1492929365292193,0.035919878673251485,0.13579323060065135,0.08944900919780145
0.41270623370652504,0.006963768045183061,0.016838503799550947,0.08004825479106482,0.053621802336318594,0.3049877095578814,0.1072936960674252,0.00014114758738161386,0.10142520016962624,0.018052851579964054,0.03289700030186747,0.13374402135953492,0.14927487451114532,0.03603466474312935,0.13608184629625814,0.08948288808696102
0.4107516669060612,0.0070811921750311545,0.01650924804333636,0.07882690917615261,0.05417449454464822,0.3066852167494723,0.1102859483936269,8.843969714702947e-06,0.1038085796771273,0.018603563695535456,0.03303767129943051,0.1326002374534257,0.1492638375496087,0.03614100357526195,0.1363222672412413,0.08951690141563809
0.40863424882093036,0.007209640414072573,0.016187453592460575,0.0776159543031219,0.05477966421294156,0.3083482770277359,0.11331116655382205,-0.00010610482444398854,0.10621011150478442,0.01919085257062256,0.03318054333646195,0.13146539214851055,0.14926038506048764,0.03623937645770699,0.13651466898803627,0.08955113848586366
0.40635797985213706,0.007349280495224239,0.015873140148990262,0.07641592747943414,0.055438029040056305,0.3099805302952813,0.11636704578016303,-0.00020270173045122206,0.10862901055797278,0.019815387273702828,0.033325655228609675,0.1303393149603249,0.14926483699520532,0.03633029020318099,0.13665945960582718,0.08958555150191004
0.40392716259695843,0.0075002838034292,0.015566341558750654,0.07522736934782824,0.0561502116664029,0.311585212766598,0.11945109971747497,-0.000279911995354345,0.11106462354641261,0.020477854064108528,0.0334730292441744,0.12922189387186087,0.14927730195807293,0.03641425193001625,0.13675721997021176,0.08961997765955773
0.401346609111158,0.007662824941688005,0.015267104233602351,0.07405084050385714,0.056916734525434984,0.3131651795560711,0.12256064447580783,-0.0003366640059608591,0.1135164450402717,0.021178953775716325,0.03362269133420879,0.1281131138057987,0.14929774427331383,0.03649174283373568,0.13680862944957795,0.08965418443957263
0.3986217794810639,0.007837081104956638,0.014975482734299762,0.07288692948046913,0.057738023412695356,0.31472305012505764,0.12569281794052398,-0.00037185244786942106,0.11598412125783443,0.021919394942235614,0.033774688014591214,0.12701308352156865,0.14932605730855125,0.036563199021691084,0.13681437994458825,0.08968791569337095
0.39575884932445826,0.008023231356682314,0.014691533026256923,0.07173625236175321,0.05861441959214127,0.31626137409356175,0.12884462512597808,-0.0003843433122982927,0.11846744092825694,0.022699882905294278,0.03392909900275418,0.12592205030576403,0.14936212837026533,0.03662900949147632,0.1367750823342287,0.08972092961088167
0.3927647079721964,0.008221455879400767,0.014415304052031227,0.07059944467166455,0.0595461954378202,0.31778276243191056,0.13201299185136667,-0.0003729801404548511,0.12096631301816443,0.02352110615086809,0.034086044897251706,0.12484040230670188,0.1494058912115543,0.036689531757347814,0.13669118276600756,0.08975302649664649
0.3896468928593745,0.008431935247716967,0.01414682923557438,0.06947714649856016,0.06053356968184664,0.3192899749388544,0.13519481873402014,-0.00033659082591356025,0.1234807315591348,0.02438372447185575,0.03424568941586304,0.12376865883118549,0.14945736306989846,0.03674511494665561,0.13656292828408254,0.08978406474035379
0.3864134688265315,0.00865484975007291,0.013886121557068951,0.06836998204996204,0.061576720378536225,0.3207859663999678,0.1383870326091276,-0.0002739939144501798,0.12601072824763052,0.025288366198226022,0.0344082359716288,0.12270744934301003,0.1495166637627023,0.03679612126661004,0.13639040401638647,0.08981396394229448
0.38307286341013486,0.00889037876541563,0.013633175118459148,0.0672785349802155,0.06267579425997848,0.3222738963707292,0.14158663227582985,-0.0001840026558222057,0.12855631389486807,0.0262356370367931,0.034573918656580716,0.12165748225642053,0.14958401518023587,0.03684294276810143,0.13617361336474124,0.08984269482056319
0.37963367067012566,0.009138700182204218,0.013387971568726847,0.06620332090044109,0.06383091132430183,0.32375710926159024,0.14479072539282645,-6.542581179740677e-05,0.1311174101711157,0.027226135352047973,0.03474298800570712,0.12061950489234273,0.14965972049118734,0.03688601270758296,0.1359125614864264,0.08987025624996672
0.37610443661746634,0.00939998982975195,0.013150487325754434,0.06514476138161988,0.06504216373042404,0.32523909226714165,0.14799655341611734,8.293339542590651e-05,0.13369378120462352,0.028260467913837354,0.03491569220970858,0.11959425615944683,0.14974412346034027,0.03692581113124668,0.13560732744260254,0.08989664051546305
0.37249343889771347,0.009674420875135707,0.012920699224318825,0.06410317012303343,0.06630960835816252,0.32672341870860294,0.15120150169484828,0.00026227783018455364,0.13628499302710065,0.029339263726029963,0.035092255316888275,0.11858241364179198,0.14983754940328542,0.03696286465674883,0.1352581229550641,0.08992178855122852
0.36880848817067197,0.009962163122427203,0.012698588053648081,0.06307875975615547,0.06763325271613384,0.32821368364915443,0.15440309222109344,0.00047381539271173904,0.13889042624540612,0.030463185164392736,0.03527285805726511,0.11758453683007454,0.1499402303947114,0.036997740778815624,0.1348653363050238,0.08994554240266064
0.36505681255364686,0.010263382134959656,0.012484139965408331,0.06207166404825545,0.06901303422919408,0.3297134373545244,0.15759895706538002,0.0007187571371271699,0.14150933284775916,0.031632935794076125,0.03545763160150655,0.11660101575201753,0.15005222712221994,0.03703103734746934,0.13442956053026786,0.08996761486734185
