EMG01_right_gast_med,EMG02_right_glut_max,EMG03_left_gast_med,EMG04_left_glut_max,EMG05_right_glut_med,EMG06_right_bic_fem,EMG07_right_rect_fem,EMG08_right_vast_lat,EMG09_right_vast_med,EMG10_right_tens_fasc_lat,EMG11_left_glut_med,EMG12_left_bic_fem,EMG13_left_rect_fem,EMG14_left_vast_lat,EMG15_left_vast_med,EMG16_left_tens_fasc_lat
0.04028362141606997,-0.02225682909180092,-0.18467664683870616,0.05289906054110609,-0.050709726104365485,0.07095692271063381,0.03412830440625937,0.05883451100015899,0.18436951423207656,-0.03033111987506359,-0.04804240306458443,0.07333567222415155,0.05012329406589334,-0.012054733326851882,0.04167587640121028,-0.02165736098084679
0.05251589372125157,-0.01985728268560039,-0.17095237247840706,0.05413901378448761,-0.043644805010628535,0.07090738316944036,0.033797108916419495,0.05761143931118236,0.18507857015921797,-0.02679921629672365,-0.045250645713606055,0.07515866641758168,0.05106739660446296,-0.009814952960403012,0.04341488037422417,-0.01919059844599429
0.06464569528669531,-0.017463197166517615,-0.15732420825746518,0.05536585425834099,-0.0366163392721908,0.07086524739624134,0.03347894207742146,0.05638588606662418,0.1857207760145864,-0.023245655620668142,-0.04245373398223653,0.07700275143906107,0.05204224336744434,-0.007598820882654577,0.04516499315625692,-0.016744092545978282
0.07665613047067137,-0.0150777593178645,-0.14381272503347733,0.05657828289018381,-0.029634686634214983,0.07083081632985251,0.03317470198597819,0.05515941238557452,0.18628783680307154,-0.019674027070742978,-0.03965463021591982,0.07886605615630347,0.0530486909131972,-0.005410068024718829,0.0469250127010765,-0.014321371789192829
0.08853052343840619,-0.012703949406623966,-0.1304370264825927,0.0577749474782087,-0.022709691327000233,0.07080436256366081,0.032885294327849895,0.05393351009085086,0.18677268570917702,-0.01608751553740258,-0.03685600503945644,0.08074692769033641,0.05408753526584844,-0.003252180115237612,0.048693690755537374,-0.011925762763594689
0.10025241456693827,-0.01034449001751079,-0.11721440304173988,0.058954464893454114,-0.015850537840631795,0.07078612953351797,0.03261163175092153,0.052709589966199726,0.18716974808110332,-0.012488792406640407,-0.0340601738498985,0.0826439848945069,0.055159517195260827,-0.001128311574592182,0.05046975278354256,-0.009560319794847729
0.11180546318344774,-0.008001814684872505,-0.10416010288147487,0.06011547444747564,-0.00906565143742554,0.07077633320995326,0.03235463117276339,0.05148899414439468,0.18747502142429837,-0.00887995402883694,-0.03126905640209156,0.08455613962941155,0.056265352561190356,0.000958776066957751,0.05225192862611191,-0.007227767820533322
0.12317334369055472,-0.00567805370306423,-0.0912872101124395,0.06125669218766704,-0.0023626435261127417,0.07077516403640596,0.03211520921455825,0.050273016564889576,0.18768600817674952,-0.005262504691785462,-0.028484156648546356,0.08648259163954447,0.0574057656660954,0.003006746749909284,0.054038980167541634,-0.004930464155749405
0.13433975832191583,-0.003375034747313897,-0.07860661979514591,0.06237695564629983,0.004251700443261719,0.07078278731220633,0.03189427595162174,0.04906291880531929,0.18780153384898707,-0.001637376055681582,-0.025706560320480923,0.0884228018071621,0.058581515883622606,0.0050136971721922025,0.055829722805361755,-0.0026703782276115352
0.14528861155259318,-0.0010942958067660278,-0.0661270970482449,0.06347525813421473,0.010771393893878337,0.07079934050771954,0.03169272718375771,0.047859938751790884,0.1878214827985387,0.0019950250421403725,-0.0229369475881667,0.09037644826138709,0.05979341658746033,0.006978142700915454,0.05762304099411007,-0.00044908793800724786
0.1560042790242766,0.0011628921421249847,-0.05385540569129954,0.06455077192567044,0.01719118715802632,0.07082492633474226,0.03151143545537504,0.046665293274550435,0.18774648304964167,0.005634748413844565,-0.020175618017295185,0.09234336955062296,0.061042346723657465,0.008898986004992233,0.05941789819157862,0.001732209073844697
0.1664718893201348,0.003395495002227647,-0.041796491871596134,0.0656028598578611,0.023506475281270003,0.07085960092419774,0.03135124009385303,0.045480176028083436,0.18757756706714823,0.009282218834462825,-0.01742252529866224,0.09432349834947733,0.06232925546052828,0.010775472078057591,0.06121334146715354,0.00387267108428855
0.17667757975193807,0.0056026800342524755,-0.02995370810695573,0.06663107511649666,0.029713180734134845,0.07090335693091837,0.03121293693330026,0.0443057514867977,0.1873158551301434,0.012938146832172903,-0.014677319378786417,0.096316788716568,0.06365516045412452,0.012607133082784498,0.06300850100946634,0.00597177681021826
0.1866087070453668,0.007783776858134515,-0.01832906333261758,0.06763514927959316,0.03580761670275737,0.07095610179380746,0.031097270146156607,0.0431431463330759,0.1869623587131083,0.016603437256999587,-0.011939393709006206,0.0983231412097196,0.06502114036606926,0.014393726318107074,0.06480258477913436,0.008029280916667167
0.19625399750099315,0.009938236594170135,-0.006923485687298629,0.06861496897415462,0.04178633681097555,0.07101763524043603,0.031004930169592864,0.04199343922219852,0.18651798076423934,0.020279102318000234,-0.00920793557204968,0.10034234017377736,0.06642832229426325,0.016135168248800815,0.06659486851911689,0.010045162623358998
0.20560362539392552,0.012065590463680486,0.004262913672726396,0.06957054179818954,0.047645994856011384,0.07108763792453848,0.030936558906506723,0.04085764983188233,0.18598366335575792,0.023966194707897494,-0.006481977700311405,0.10237402967498849,0.06787786477206002,0.017831467716957074,0.0683846813101645,0.012019569483223295
0.21464921254630398,0.014165410224095145,0.015230585792201217,0.07050195248242577,0.053383273018372514,0.07116568089897861,0.03089275858901443,0.03973672916611514,0.18536056238067405,0.027665782041203586,-0.0037604492436117357,0.10441773889881079,0.06937093698215707,0.01948266878305547,0.07017138686555635,0.01395275835871887
0.22338374646759174,0.016237277741339845,0.02598031126613104,0.07140931057456298,0.05899491637856491,0.07125125084884865,0.030874100339380876,0.03863155530954286,0.18465017851705012,0.03137896427630976,-0.001042219240359711,0.10647293483328268,0.07090869479517678,0.021088825046457014,0.07195436076950476,0.01584504003373844
0.23180141893495754,0.01828077431878859,0.03651302291957488,0.07229269365404598,0.06447783515725795,0.07134377928528012,0.030881130994965186,0.03754293731445324,0.18385443140479626,0.03510690963488364,0.001673881932217456,0.10853907561939125,0.0724922541914475,0.02265001593185092,0.07373296388408625,0.01769674446319515
0.23989739095480841,0.020295491443248874,0.04682973071697799,0.0731521012312904,0.06982921439449646,0.07144266934102064,0.03091437788116123,0.03647162430976733,0.18297567998279707,0.03885088645148807,0.0043890698840338424,0.11061565503905725,0.07412266257918293,0.02416638665541714,0.07550651219606791,0.019508221694087585
0.24766749366852012,0.022281052092877066,0.05693155086050434,0.07398744409552284,0.07504660688943966,0.07154731811483173,0.03097435128670801,0.03541831498451136,0.18201669435191017,0.04261228489668486,0.007104629549693825,0.1127022364073186,0.07580086964458989,0.02563818879892532,0.0772742434389857,0.02127987152440022
0.2551078778486654,0.024237132242297683,0.06681977911616721,0.07479857743343285,0.08012800545087351,0.07165713319734021,0.03106154448205374,0.03438366526946728,0.18098058647747825,0.04639262918086671,0.009821938743305008,0.11479847432490195,0.0775277041649584,0.027065813762627233,0.0790352850165161,0.023012181815652472
0.26221467211890315,0.026163479597914978,0.07649595394525513,0.07558535812883915,0.08507189199504837,0.07177154225978062,0.031176431220220784,0.033368293983605114,0.17987070835783042,0.050193581089113606,0.01254248678612105,0.11690412301263448,0.07930386701877268,0.028449818692856482,0.08078863671661084,0.024705763211603074
0.2689838054237986,0.028059929523297264,0.08596189637981519,0.07634770417139303,0.08987726191833344,0.07188999490170754,0.031319460766311785,0.03237278655358225,0.17869052699401136,0.05401693582679112,0.01526788809886976,0.11901903030535967,0.08112994333843349,0.02979094471372721,0.08253317901042564,0.026361377397641845
0.2754111081353083,0.02992641812359894,0.0952197302903242,0.07708564799156552,0.09454362309639888,0.07201195631429749,0.031491050611256434,0.03139769699409846,0.17744348569989898,0.057864611207298085,0.017999890791671417,0.12114311684322575,0.08300642529069802,0.031090127507237622,0.08426770071121752,0.027979958425872743
0.28149260853831093,0.03176299244281551,0.1042718871785936,0.07779938157704588,0.09907096978073718,0.07213689270636545,0.03169157713281382,0.03044354839553619,0.17613287180383094,0.06173863119353392,0.02074038040426789,0.1232763405468995,0.08493373647330238,0.032348500474511835,0.0859909327763658,0.029562626852975782
0.2872248663181055,0.03356981769413082,0.11312109974859633,0.07848929145688656,0.10345973254393923,0.07226424884233595,0.031921366169711064,0.02951083220184085,0.17476173521925953,0.06564110472872518,0.02349137904673328,0.1254186470788094,0.0869122548823545,0.033567390869717585,0.0877015819188644,0.03111069664644764
0.2926052678477809,0.03534718140269431,0.1217703883088536,0.0791559819540933,0.10771070624411956,0.07239341843391478,0.03218068878101204,0.02860000657827215,0.17333289472581231,0.06957420068894853,0.026255040270143058,0.12756990765149354,0.0889423338123585,0.03474830943285111,0.08939836252924131,0.03262567500819134
0.2976322657582977,0.037095494299715884,0.13022304359140405,0.07980028549672781,0.1118249587092117,0.07252371137298651,0.03246976589692764,0.02771149416700899,0.17184901171017666,0.07354011967642556,0.02903364005870725,0.12972985256306002,0.09102431998626033,0.0358929341578469,0.09108002586225762,0.03410925543886386
0.3023055533768782,0.03881528777342107,0.1384826088926063,0.08042325922959705,0.11580372345804729,0.07265433061928787,0.0327887789349017,0.026845679510444018,0.17031267752191254,0.07754106326217598,0.03182956437972169,0.13189802635633893,0.0931585681591833,0.0370030889164867,0.09274538541404817,0.03556330451798064
0.30662616772590895,0.0405072076640124,0.146552863624866,0.08102616766798114,0.1196482802599991,0.07278437430868566,0.03313788140479997,0.026002906390637435,0.16872648152653205,0.08157920119487677,0.03464529375765117,0.13407379271126785,0.09534545140704667,0.03808071771838857,0.09439333742112316,0.03698984300209499
0.3105965180637376,0.042172004192511436,0.15443780949040592,0.08161045166313374,0.12335983968216152,0.07291286397463795,0.03351720941371047,0.025183475292091553,0.16709305252255438,0.08565663703040405,0.03748338535529277,0.13625638646210575,0.09758536631018581,0.03912785542446846,0.09602287545737732,0.0383910219453895
0.3142203402659466,0.043810517841003996,0.16214165961736077,0.0821776844853423,0.12693947501025002,0.07303878479630051,0.03392689053060879,0.024387641146991133,0.16541507353886012,0.0897753726073156,0.040346453048812014,0.13844498458697405,0.09987873228130006,0.0401465957458707,0.09763309819165705,0.03976909462268098
0.317502580537295,0.0454236610569408,0.169668830200109,0.08272951635166312,0.13038813792547752,0.07316112558614644,0.03436705053091057,0.023615611756916836,0.1636952713937649,0.0939372744600321,0.043237145975651356,0.14063877432729405,0.10222598437384835,0.0411390573541647,0.09922320949769889,0.041126385084284685
0.3204492148675049,0.04701239573750609,0.177023933514632,0.08326760920920216,0.1337067393743026,0.07327891402026007,0.03483781762460749,0.022867547771394416,0.16193638357106915,0.09814405135818471,0.046158126016054436,0.14283701048271824,0.1046275590461602,0.042107348904178755,0.10079251027972999,0.04246525419645173
0.3230670131768523,0.04857770656002917,0.18421177067475314,0.08379357019725368,0.1368962486925832,0.07339124538473124,0.03533932387563018,0.022143564647834207,0.16014110591447683,0.10239725083105423,0.04911204464087017,0.1450390582687765,0.10708387254947407,0.04305353722438551,0.1023403815880076,0.04378806402170135
0.32536325914168523,0.05012057035744818,0.19123732218077777,0.08430890866617287,0.13995778444253026,0.07349730335868766,0.03587170363945155,0.021443735720080757,0.15831202533635663,0.10669827052039253,0.05210151952114776,0.1472444186482961,0.10959529185272876,0.04397963020554049,0.1038662588444342,0.04509714350634968
0.3273454381720671,0.05164192363356382,0.1981057341981004,0.08481504267318822,0.14289269026478685,0.07359637167192454,0.036435088975201535,0.020768095265208526,0.15645154711301382,0.11104837386941509,0.05512911124983179,0.14945273376288137,0.11216209830721909,0.04488758278241383,0.10536959727260939,0.046394764545421824
0.32902092401331917,0.053142637067409154,0.2048222985836734,0.08531335070720296,0.14570259328395,0.07368783584916377,0.03702960212162321,0.020116641223586883,0.1545618422363496,0.11544870410327533,0.05819730127729414,0.15166377096822092,0.1147844445801428,0.04577931917870744,0.10684982892099226,0.047683138805724445
0.3303967504628804,0.05462351057014755,0.2113924249324503,0.08580524088405819,0.14838944327405965,0.07377117466736341,0.0376553452564633,0.019489337645405242,0.15264484596886685,0.11990029481165906,0.06130847468085795,0.1538773849765803,0.11746231195140724,0.046656758926198534,0.1083063119725077,0.048964434394974214
0.3314795762567034,0.05608529265923756,0.21782160331215616,0.08629221731868754,0.15095553149867857,0.07384594138900782,0.03831238787959946,0.01888611696578485,0.15070230947933178,0.12440407627939931,0.06446491232122639,0.1560934586828477,0.12019548830563735,0.04752184099254702,0.10973827808429695,0.050240801004395146
0.33227584710469077,0.05752871350875082,0.224115356852667,0.08677593720072974,0.15340348886111846,0.0739117352736575,0.039000752393709814,0.01830688220267024,0.14873587410468744,0.12896087673870552,0.06766879227241779,0.15831182434243418,0.1229835820524417,0.04837654512805406,0.1111447969069093,0.051514394622485776
0.33279204189430367,0.05895452047745548,0.23027918391098193,0.08725825628464252,0.15573626370765623,0.07396816429273459,0.039720400646905386,0.017751509154791775,0.1467471411036436,0.13357141779938736,0.07092219539853604,0.16053217367660724,0.1258260615422345,0.04922291015080773,0.11252477972446591,0.05278739931795231
0.33303490341607705,0.06036351204051775,0.23631849009872552,0.08774126095444656,0.15795708029539043,0.07401480035976041,0.040471227769167034,0.017219848652879843,0.14473772797501913,0.1382363034569413,0.07422711084613376,0.16275398725815335,0.12872230036071422,0.050063048950733074,0.11387702160189847,0.0540620457159464
0.333011622485109,0.061756568897296686,0.24223851099337898,0.08822728555575442,0.16006937954454323,0.07405113473464037,0.04125306704112989,0.016711728888165082,0.14270930952212305,0.1429560022836195,0.07758544039976387,0.1649765264907911,0.1316716194936033,0.05089916004562798,0.1152002613630033,0.05534062586459638
0.3327299707857357,0.0631346810296644,0.24804422681936458,0.08871891428134963,0.1620767442237354,0.07407655467043672,0.04206570159352885,0.016226957810426705,0.14066364266293363,0.14773082267089732,0.08099900179444386,0.16719889821309475,0.13467332371269927,0.051733535565985984,0.11649324303715064,0.05662550425624593
0.33219838018827363,0.06449896953721196,0.2537402743627844,0.08921896752534757,0.1639828111511403,0.07409035845956086,0.04290887683217407,0.01576532555604314,0.13860257478692767,0.15256088130501225,0.08446953111105213,0.16942015676129182,0.1377267298757867,0.0525685655806455,0.11775477328144605,0.05791912482924102
0.331425968682751,0.06585070217897934,0.25933087633520685,0.08973047325689475,0.1657911733240475,0.0740917997220935,0.04378231124540602,0.015326606837324072,0.13652803620845355,0.15744606543950412,0.08799868439871007,0.17163940732279662,0.14083118499655697,0.05340673870382311,0.11898377264307314,0.05922401383179081
0.33042251533867917,0.06719130170497063,0.26481981969980517,0.09025662457897964,0.16750527873209767,0.0740801395863288,0.04468570517404476,0.014910563200310045,0.13444201793398317,0.16238599500234285,0.09158803867003616,0.1738558965595219,0.14398607223028212,0.05425063894858193,0.12017931861936751,0.060542778480605464
0.3291983887365444,0.0685223462611164,0.27021049180580065,0.0908007252032539,0.16912834940339724,0.07405469538013786,0.0456187472355552,0.014516945041198562,0.13234653652301698,0.1673800010577861,0.09523909239959379,0.17606908555020187,0.14719080333442555,0.055102938815177076,0.12134067864519323,0.061878101395613797
0.32776443504491165,0.06984556139237232,0.2755059483399745,0.09136612506154833,0.170663358789276,0.07401488272850111,0.04658111822064228,0.014145493263102127,0.13024358826362967,0.17242713224252762,0.09895326562253287,0.178278700797856,0.15044479669091596,0.05596638862837039,0.12246733138695413,0.06323273084027003
0.3261318332742289,0.07116280344202891,0.2807089858434877,0.09195614866629863,0.1721130791258944,0.0739602493726384,0.04757249241440372,0.013795940455983225,0.1281350951944233,0.17752617991475503,0.10273189967998818,0.18048475997139948,0.15374744060103995,0.05684380216940325,0.12355897504545534,0.06460946684715117
0.32431192618215393,0.07247603444093847,0.2858222098762663,0.09257402781525752,0.17348016612843858,0.07389049935350224,0.04859253642743866,0.013468011493698074,0.12602284624786456,0.18267570614785528,0.10657625659195646,0.1826875701566571,0.15709804226056007,0.0577380386890055,0.12461552175790756,0.06601114336325753
0.3223160358136412,0.0737872888863387,0.2908480975827039,0.09322286796870385,0.17476724549128161,0.0738055065860221,0.049640905746694025,0.013161423462735664,0.12390844553022032,0.187874067536059,0.11048751795989645,0.18488769762915766,0.16049576356128115,0.0586519814398657,0.12563707763167192,0.06744060661080228
0.3201552727310768,0.07509863311324558,0.2957890536675633,0.09390566832736474,0.17597698907649795,0.07370531727396837,0.05071723932348103,0.012875884866508692,0.12179329362360337,0.19311943247967997,0.11446678321406958,0.1870859094695306,0.16393955340308236,0.059588512931893566,0.1266239084251441,0.06890068992856163
0.3178403611389144,0.07641211824888025,0.30064745900864126,0.09462537738554042,0.17711217881844246,0.07359014106064009,0.05182115259996445,0.012611094085375633,0.11967861571135749,0.19840978971298084,0.11851506692962833,0.18928308865818863,0.16742810549713646,0.060550487191690316,0.12757639139806914,0.07039418543644807
0.3153815329728135,0.07772973100748044,0.3054257112904249,0.0953849530863769,0.17817575678708755,0.07346033125900003,0.05295222942971897,0.012366737113630065,0.11756551711051387,0.20374294606668067,0.12263329484637647,0.19148012554441227,0.17095986917925005,0.06154069947683679,0.12849495436598413,0.07192381295132523
0.31278853522863787,0.07905335687541251,0.3101262571272523,0.09618741401890973,0.17917086028629145,0.07331635493759545,0.0541100133686471,0.01214248463775119,0.11545504006548632,0.20911651182154112,0.12682229814618182,0.1936777925107997,0.1745331056392088,0.06256185824017951,0.12938000349170786,0.0734921901481576
0.3100707242377261,0.08038477532586202,0.31475161515283784,0.09703587905293891,0.18010084130218615,0.07315875403757081,0.055293998797744555,0.011937988891322813,0.11334821240553945,0.2145278725027959,0.13108280547571113,0.1958766315328463,0.1781459597407929,0.06361657235170155,0.1302318443288579,0.07510181567245441
0.3072371792179484,0.08172568993566189,0.3193043894928657,0.09793359412852962,0.1809692700499671,0.07298809904483429,0.056503622289169886,0.011752881666866515,0.11124608697887547,0.2199741465724153,0.13541543215695942,0.19807691449108814,0.18179652772110758,0.06470736221739845,0.13105061524928008,0.07675507476387268
0.304296794230811,0.08307777581816833,0.3237872729253361,0.09888394551244459,0.1817799227848435,0.07280493702577451,0.057738254544464206,0.011586775036847945,0.10914977120405583,0.22545213080597154,0.1398206660100961,0.20027870683924792,0.1854829137343949,0.06583668668989437,0.131836268306832,0.07845426205170428
0.30125834005678015,0.08444272781111767,0.328203038895032,0.0998904594491178,0.18253675443704034,0.07260974193526767,0.058997193123566924,0.011439264682429309,0.10706044649673983,0.23095824752597094,0.14429884922788616,0.20248199313316165,0.18920327124057928,0.06700697310797142,0.13258861247148784,0.08020160943753758
0.29813049659179025,0.08582230373084164,0.33255452141641806,0.10095678873913545,0.18324385699575466,0.07240288799290145,0.06027965605252143,0.011309934251237068,0.10497937771987585,0.23648852448413496,0.1488501557925853,0.20468680845009188,0.19295582572665193,0.06822064558172745,0.1333073930321292,0.08199931280202354
0.29492185779909147,0.08721836118050494,0.33684458180944793,0.10208668734454196,0.18390540489865467,0.07218466241369073,0.06158477625516793,0.011198359473432954,0.10290791315481107,0.24203862580843682,0.15347456401736473,0.2068933537635258,0.1967388759565952,0.06948015059168491,0.13399237500183808,0.08384955593058978
0.2916409124885815,0.08863288661808914,0.3410760612004496,0.10328397462082309,0.18452558897870003,0.07195530712001032,0.06291159660968423,0.011104111577861757,0.10084747578871886,0.2476039175503009,0.15817182392581483,0.20910208999586136,0.20055077185057527,0.07078797898178843,0.1346434184616906,0.0857545307184111
0.2882960051893842,0.09006801565776745,0.34525171781625935,0.10455249118684072,0.18510854077635402,0.07171506702909565,0.06425906529529789,0.011026759821636515,0.09879954695302093,0.2531795422149269,0.1629414225727117,0.2113138063688262,0.2043898681615863,0.07214668347760984,0.13526054301208776,0.08771645275769495
0.28489528209332726,0.09152604388476551,0.3493741483275278,0.10589604874761713,0.18565824924087923,0.07146423316440492,0.0656260309785736,0.0109658729805072,0.09676564352415241,0.2587604907965292,0.16778255919240265,0.21352965976679533,0.20825445430129147,0.0735588909542928,0.13584397883994553,0.0897375714922121
0.2814466274555773,0.09300942779577258,0.35344569287087285,0.10731837636764144,0.18617847704695883,0.07120317778742255,0.06701123730231069,0.01092101969181301,0.09474729001125952,0.2643416677677727,0.1726941437826129,0.21575118307081237,0.2121426619105705,0.07502730881345748,0.13639420235870509,0.09182017424610084
0.2779575959382261,0.09452077582047465,0.3574683239016825,0.10882306863663514,0.18667270027906765,0.07093238043543638,0.06841331609174718,0.01089176759440507,0.09274598690728432,0.2699179443932568,0.17767481911263477,0.2179802617539159,0.21605236495434751,0.07655472500152957,0.13691195492126906,0.0939665835953286
0.2744353461824414,0.09606282972026343,0.3614435261261842,0.11041354915034966,0.18714410244500454,0.07065244414484845,0.06983077903566565,0.010877681267951642,0.09076317667492786,0.2754841958892072,0.1827229948939223,0.22021907939027746,0.219981117418354,0.07814400140825635,0.13739824372411566,0.09617914774745444
0.270886580935325,0.09763843698328181,0.36537220120117236,0.1120930632268432,0.18759562549557865,0.07036410155924819,0.07126200976124443,0.010878319034755238,0.08880020868372324,0.28103531834609685,0.1878368855556067,0.2224700340603599,0.2239261730270231,0.07979806061559021,0.1378543246907671,0.09846022382260776
0.2673175025081594,0.09925051512756303,0.3692546514357569,0.11386469659327927,0.18803004790830338,0.07006821104857637,0.07270526123796907,0.010893228747535877,0.086858306698307,0.2865662219662727,0.1930145486327909,0.2247356288729798,0.22788457766853432,0.08151986621369683,0.13828166781777715,0.10081215417784015
0.2637337950534895,0.10090200907466089,0.37309066009445774,0.11573140194776363,0.1884500628874836,0.06976574338147909,0.07415866203549287,0.010921943375562035,0.08493854885154094,0.292071798030455,0.19825392214848045,0.22701834091847659,0.23185328898369623,0.0833123971511058,0.13868190615721307,0.10323723617847808
0.2601406325278884,0.10259584295535697,0.37687962768577093,0.11769601974760516,0.1888583479107181,0.06945775987897411,0.07562022987862534,0.010963978645489241,0.08304187044354235,0.297546858067771,0.2035528591783494,0.22932047775174408,0.23582929186506807,0.08517861682755348,0.13905677026646807,0.1057376860825814
0.2565426929754734,0.10433486784981352,0.3806207192797332,0.1197612895719521,0.18925762360146897,0.06914538331713399,0.07708788936777508,0.011018834622499007,0.0811690870806787,0.30298604492403913,0.20890915765100904,0.2316440548428326,0.23980969856086443,0.08712143785830129,0.13940801055009058,0.10831559795586149
0.25294416331482095,0.10612181017172025,0.38431300570670274,0.12192985198048213,0.18965070016468671,0.06882976312508934,0.07855949251043001,0.011086000333507644,0.07932092520116851,0.3083837167517867,0.21432058336831633,0.23399075466068142,0.24379182712661654,0.08914368362575589,0.13973731042158782,0.11097290362723018
0.24934873971743526,0.10795923477573338,0.3879555928361063,0.12420424131346534,0.19004050994004082,0.0685120366297091,0.08003284147492175,0.011164959165069429,0.07749805063483829,0.31373382200127575,0.21978488424183207,0.23636199269654662,0.24777325271039677,0.09124805132170394,0.1400462020808813,0.11371135014132056
0.24575964150234564,0.10984953943584147,0.39154773301500406,0.12658687036614635,0.19043012500090511,0.06819328822041255,0.08150571273029335,0.011255193751681129,0.07570109285589674,0.31902982303981403,0.2252997938414864,0.23875904297289802,0.2517518272176028,0.09343708900782026,0.1403360166562519,0.11653250719745431
0.24217964849854423,0.11179498013441821,0.3950889129149656,0.1290800082971364,0.19082275915035357,0.06787451265906957,0.08297588150968639,0.011356189933450373,0.07393066482557237,0.3242647256738013,0.23086302254634752,0.24118316517525695,0.2557256642379854,0.09571319704469172,0.14060789649559477,0.11943779608568102
0.238611155056616,0.11379770949835678,0.39857891251030547,0.1316857534748049,0.19122175413010792,0.06755659705992811,0.08444114534484869,0.011467439520659142,0.07218737845348068,0.32943120360861866,0.23647223487686558,0.24363571195091394,0.2596930876730276,0.09807864807824933,0.14086285707878377,0.12242852332073019
0.2350562291382277,0.115859813892403,0.4020178306919218,0.1344060032107122,0.19163055035315957,0.06724033026217144,0.08589934528073756,0.011588441647744077,0.07047185581771247,0.33452176159689734,0.2421250119705871,0.24611821198488834,0.26365254420308865,0.10053561139921399,0.14110186273061634,0.12550591080416204
0.23151666983191171,0.11798334489863944,0.40540607409098617,0.13724242432334352,0.1920526429799432,0.06692642864482704,0.08734838330450628,0.011718702556422511,0.06878473637277231,0.3395288993697624,0.24781879863202402,0.24863242550957204,0.2676024814981806,0.10308617357242272,0.14132589430045395,0.12867112042723897
0.22799405923823782,0.12017034453456014,0.40874430700994496,0.14019643248830319,0.19249152466445796,0.06661556198432174,0.08878623452231678,0.011857733714718679,0.06712668044183338,0.344445262845603,0.25355083493025393,0.2511803700827912,0.2715411958160762,0.1057323532752397,0.14153600287090667,0.1319252718046231
0.2244898049880316,0.12242286380869487,0.41203336188307205,0.14326918607622696,0.1929506167829154,0.06630837267399037,0.09021095269671572,0.012005048252610364,0.06549836933653082,0.3492637747120283,0.2593180729184948,0.25376431572909486,0.27546667612281733,0.10847610966650519,0.14173334754617464,0.13526945205006985
0.2210051701903831,0.12474297445355777,0.41527411134947656,0.1464615895755958,0.19343319140307005,0.06600548745440121,0.0916206679189934,0.012160155772720092,0.06390050247574648,0.3539777369055108,0.26511708878806073,0.25638674982798476,0.27937652092271187,0.1113193438827273,0.14191921607492392,0.13870471677481996
0.217541288320176,0.1271327738997115,0.4184673047413919,0.14977429623723743,0.19394228920637316,0.06570752154539745,0.09301357543287517,0.012322555906680285,0.062333791887253645,0.35858089831448153,0.2709440248094295,0.259050313396606,0.2832679902024268,0.11426389355256293,0.14209502782650524,0.142232081796583
0.2140991614062963,0.12959438375279642,0.42161337348635847,0.1532077037917454,0.19448065228185463,0.06541507546137289,0.09438791494128562,0.012491732480427863,0.06079895447576485,0.3630674821860854,0.2767945976726453,0.2617577116007166,0.2871381606209327,0.1173115205205311,0.1422623194286913,0.14585250537935565
0.2106796408233448,0.1321299422004961,0.42471223182732926,0.15676194171288896,0.19505070411366157,0.06512872516055206,0.09574194010548584,0.0126671519198518,0.05929670243098933,0.36743216918663746,0.2826641693676305,0.2645116023882978,0.2909841087704379,0.12046389226288441,0.14242271415379523,0.14956686116833476
0.20728339096928097,0.13474159090327012,0.42776315152514705,0.1604368534746125,0.19565458796684845,0.06484900650868491,0.09707387837034,0.012848267754279007,0.05782773213276168,0.3716700337960065,0.28854784601832195,0.2673144680323377,0.29480308227898294,0.12372255774989935,0.14257787687175363,0.15337590232609713
0.20391083707567084,0.13743145700791348,0.4307647891982694,0.16423198573460615,0.19629423618314118,0.06457639531141475,0.09838188170211784,0.013034528949131628,0.0563927118899228,0.3757764336367868,0.29444057958841513,0.2701684830795535,0.2985926466320808,0.12708891874775008,0.14272945703890996,0.15728021770277378
0.2005621066406706,0.140201630966074,0.43371534917465165,0.16814659562834677,0.19697143899775524,0.06431128467291816,0.09966397709573596,0.013225388957891514,0.05499226882780047,0.3797468533680439,0.3003372637672596,0.273075417659656,0.3023508000646764,0.1305641977494017,0.14287902272834963,0.16128018167804758
0.1972369941122533,0.14305414084293563,0.43661279641817896,0.17217967393498845,0.19768790151758314,0.06405396480438912,0.10091804267178019,0.013420314210098889,0.053626975217669334,0.3835767068197334,0.306232819592596,0.27603662362031045,0.306076050139233,0.13414940537262762,0.14302799056846793,0.1653759069140682
0.1939349809265037,0.14599092376847495,0.4394550598749525,0.1763299749375565,0.19844528653921847,0.06380461501022737,0.10214182958188515,0.01361879162380922,0.05229733452168975,0.3872611108011572,0.3121222663985727,0.2790531044248096,0.3097674472182589,0.13784531475728953,0.14317756661346087,0.16956722162544696
0.19065530846895887,0.14901379512107676,0.44224020668584696,0.18059604752759084,0.19924524142578354,0.06356331226547607,0.10333301783052568,0.013820334755455084,0.05100376830371182,0.390794689889512,0.3180007738919518,0.28212561984538553,0.3134245718874181,0.14165245173050026,0.1433287246412712,0.17385368454466407
0.18739707335380595,0.1521244159485557,0.4449665788556553,0.18497626489276423,0.20008940789905683,0.06333004834599688,0.10448928163703461,0.014024488242135102,0.04974660795047896,0.3941715221310657,0.323863691562092,0.2852547827105401,0.31704747540199135,0.1455711002521032,0.14348223170514474,0.1782346240773581
0.18415932160421794,0.1553242590332105,0.4476328852731828,0.18946885019957396,0.20097941431499508,0.06310474528917329,0.10560835278128088,0.014230830249583116,0.04852609616324941,0.39738527533442214,0.32970655221896805,0.2884411334493118,0.32063657431874437,0.14960131310720726,0.1436386974269421,0.1827091814180595
0.18094113343044504,0.15861457390449293,0.4502382436460975,0.19407189569100677,0.20191685074804816,0.06288726532577947,0.10668807867284667,0.014438972711415742,0.04734239819259407,0.40042945666040725,0.33552504721784,0.2916851889496961,0.32419250253695686,0.15374291926804878,0.14379861943394498,0.1872763496225475
0.17774169495166725,0.16199635165288076,0.4527821688876146,0.19878337276055416,0.20290322798011062,0.06267741462324737,0.10772647252880546,0.014648559228986426,0.04619561747081285,0.4032976773738325,0.3413149718504182,0.29498746336909665,0.32771592590724496,0.15799552501384112,0.14396241499827916,0.19193500678532613
0.1745603537883149,0.16547029481898948,0.4552645066921357,0.20360113083847964,0.20393992223856106,0.062474940533077915,0.10872175324156778,0.014859260592957162,0.04508581115033735,0.40598389442897764,0.34707214043337364,0.2983484597639583,0.3312073265996864,0.16235850805401283,0.1441304373329595,0.1966839415876928
0.17139665617965485,0.16903680339407548,0.457685313373702,0.20852288332697555,0.2050281082188762,0.06227952240226249,0.10967237283262463,0.015070767983817438,0.04401300425277181,0.40848261842212996,0.3527922717712861,0.30176863269415005,0.33466679769293434,0.16683100417746116,0.1443029757923318,0.20152186964800237
0.16825036411927782,0.17269598229591068,0.4600446854152721,0.21354617933497144,0.20616868653727097,0.062090756540274065,0.1105770298099843,0.01528278400510243,0.042977202260229025,0.41078907855624053,0.3584708468716604,0.30524832325294726,0.3380939507119182,0.17141188625503373,0.14448024006344,0.2064474393173883
0.16512145190552574,0.17644766228471392,0.46234254448419265,0.21866836057250255,0.2073622250177953,0.06190814002336721,0.11143466726081845,0.015495011795954285,0.0419784019984804,0.41289933680421015,0.36410294877215915,0.3087876692225945,0.3414880030061054,0.17609973701723483,0.14466232927773082,0.21145922581774695
0.16201008242752285,0.18029142421700192,0.4645783931182985,0.22388650344532585,0.2086089431419897,0.06173106515381555,0.11224445509541875,0.015707143570609917,0.041016600683021515,0.41481034536828365,0.3696831277217795,0.3123864942063927,0.3448479800816246,0.18089282336107065,0.14484918777793604,0.21655571291094064
0.15891656440407023,0.18422662336204285,0.46675110291723226,0.22919735330309907,0.20990874710937518,0.06155883288604465,0.11300575648879248,0.015918852825553918,0.040091803024565165,0.416519943734205,0.37520536686696593,0.3160441909702137,0.34817293189380377,0.18578908635857067,0.14504055583709927,0.22173526161599466
0.15584129262023405,0.18825241355797273,0.46885885036713365,0.23459727635073718,0.2112612891427475,0.06139067943734529,0.11371807921394371,0.016129795035007166,0.039204026319575334,0.4180267940155818,0.3806631786350382,0.3197596423329567,0.3514621231283532,0.19078615404492394,0.1452359387275191,0.22699606585165608
0.15278467392605882,0.19236777085787846,0.4708992519320348,0.24008226065099014,0.21266602289747016,0.061225805749089666,0.11438101319664631,0.01633961666071751,0.038353303484316925,0.41933025577257077,0.3860497780132755,0.3235312250790903,0.3547151894398213,0.1958813692831407,0.14543461736175822,0.2323360952717069
0.14974704233945305,0.19657151616934643,0.472869613889729,0.24564796912667838,0.21412224446721329,0.061063405162585946,0.1149941562158732,0.016547967810400473,0.037539684027278995,0.4204302039608667,0.3913582679227975,0.3273568903849881,0.35793225307187554,0.20107182205481997,0.14563569603563006,0.23775302597537323
0.14672857454669874,0.20086233623317068,0.47476718982073407,0.25128981906145287,0.21562911625041803,0.06090268777947881,0.11555703346633121,0.016754514813036653,0.036763232993649045,0.42132679601238604,0.3965818114804863,0.33123427228203595,0.36111399301293945,0.20635438147976198,0.14583816297112592,0.24324416854053357
0.14372923704528107,0.2052388021287116,0.47658940387969045,0.2570030658134498,0.21718567171410094,0.06074290011747596,0.11606903217499548,0.016958951442906,0.03602402795557555,0.42202019616335973,0.4017137835116583,0.3351607874310995,0.3642616667603527,0.21172572554322333,0.14604094625695385,0.24880642315096677
0.14074879688164496,0.20969938434673388,0.47833402882395326,0.2627828820272265,0.21879079998948736,0.060583338882796156,0.11652938610525287,0.017161008325732644,0.03532215416254974,0.42251028181643946,0.4067478940541319,0.3391337135315485,0.36737708278727066,0.21718236642120056,0.14624295888175218,0.254436290409191
0.13778688936840114,0.21424246334792132,0.4799993094889992,0.26862442798912056,0.22044321021856128,0.06042335795023134,0.11693722168342725,0.017360460121597247,0.034657698006487436,0.4227964157305595,0.41167827728751805,0.34315024132784555,0.37046252483729575,0.22272066927855108,0.1464431297954942,0.26012993073961416
0.13484310608458822,0.21886633443883827,0.48158402459899896,0.2745229088167003,0.2221413765979244,0.060262367956402114,0.11729163770091643,0.01755713015822161,0.03403073899455114,0.4228774076265963,0.4164995403199015,0.3472074962235649,0.3735206311226892,0.2283368624786346,0.1466404185814213,0.26588324339648517
0.13191707659643462,0.223569205758207,0.48308748240073063,0.2804736144144337,0.22388347054382426,0.06009982825575396,0.11759178695143298,0.017750892281928058,0.033441340458036053,0.4227516944235087,0.42120676754367087,0.3513025267700057,0.37655423328986004,0.23402703729134727,0.14683381210497892,0.2716919467501142
0.12900853610421503,0.22834918818507108,0.484509448504709,0.28647193856677533,0.22566730461851867,0.05993523134505093,0.11783694823161692,0.01794166979841697,0.032889539256815294,0.4224176320451316,0.4257954777957784,0.3554322587185891,0.37956616156814743,0.2397871354213429,0.1470223023913418,0.2775516537995602
0.12611737715787447,0.23320427606477054,0.4858500073847803,0.2925133741692504,0.22749032608711017,0.0597680802134959,0.11802658600465066,0.01812943148732983,0.032375334765018846,0.4218737886080714,0.4302615332754451,0.35959341485879226,0.38255902377564893,0.2456129229994774,0.14720484592709665,0.2834579392528149
0.12324368431694849,0.23813231780380714,0.48710936208835354,0.2985934824014896,0.22934967228180864,0.059597859405619395,0.11816039551046549,0.018314184788840112,0.0318986783865692,0.4211191999991092,0.43460100102335797,0.3637824024455927,0.3855349892696336,0.25149995008464404,0.14738030553881748,0.28940639444219723
0.12038775138286725,0.24313097561254873,0.4882875796976446,0.30470783459899314,0.23124226023169508,0.05942400219583347,0.11823833168135098,0.018495966372522623,0.03145946727847739,0.42015357862402675,0.4388099696804535,0.36799517878431093,0.38849566126943846,0.25744349520348464,0.14754738282165905,0.29539266640781636
0.11755008156861277,0.24819767397393958,0.48938430800030963,0.3108519266502321,0.2331648795277378,0.05924586313094979,0.11826062086278609,0.018674830403754877,0.031057545965436938,0.4189774680241053,0.4428843261444869,0.3722271379813658,0.3914421098760318,0.2634384950016534,0.14770456849199193,0.301412477704912
0.11473137165774866,0.2533295367817839,0.4903985506493092,0.31702106689260745,0.2351142755598104,0.05906271190137286,0.11822775501798329,0.01885083491636514,0.030692714834352174,0.4175923382501413,0.44681951533821085,0.3764730894782141,0.39437503301130544,0.26947947011469914,0.14785014640468766,0.30746162388560927
0.11193248181245939,0.2585233166551072,0.4913286311110439,0.3232102396590523,0.23708721804104013,0.05887375481420701,0.11814046878139484,0.019024027397373418,0.03036474104363198,0.4160006192595571,0.45061036254118486,0.3807273546915944,0.39729495371049817,0.2755604827025053,0.14798225662975378,0.3135359461785763
0.10915439319545102,0.26377533482898247,0.4921723795249488,0.32941396936977063,0.23908055021836977,0.05867817190751038,0.11799970039164148,0.01919443334431715,0.030073368754935787,0.41420567205622916,0.4542510637529359,0.38498393173481404,0.4002023991363243,0.28167515763786727,0.14809898802965227,0.31963127763950994
0.10639815595561473,0.26908146426634416,0.49292743386127835,0.33562625540525015,0.24109121489549634,0.05847515542491438,0.11780653814974472,0.019362053573886023,0.029818327826624465,0.41221169971942884,0.4577353590861315,0.3892366691614545,0.40309804659331744,0.2878167569576211,0.1481984723865876,0.32574336195996234
0.1036648303799261,0.2744371698743612,0.49359154007947553,0.3418406293679107,0.2431162543394142,0.05826394424143648,0.1175621545887547,0.019526871827288312,0.029599340757952047,0.4100236027652858,0.46105679691946233,0.3934794247473948,0.40598283124457796,0.2939782754466719,0.1482789692935996,0.33186774517915
0.10095542412987626,0.2798375842236906,0.49416280781667365,0.3480502982568979,0.245152782266472,0.058043852875216025,0.11726773098452029,0.019688867657333235,0.02941612772209094,0.4076467853567053,0.46420900206787713,0.39770620072754487,0.40885801173246344,0.300152539376174,0.14833893749025556,0.33799964170940916
0.09827083357788977,0.28527759222935306,0.4946399088473872,0.3542483077440613,0.24719792735895565,0.05781429394095013,0.1169243764647209,0.019848029275838362,0.029268409582786984,0.40508692064280666,0.46718591658169933,0.40191124752107704,0.41172519150768105,0.3063323025342919,0.14837708884307949,0.34413379675645217
0.09561180943516474,0.29075191440535847,0.4950222080531136,0.36042769710753203,0.24924874909215225,0.057574793167420084,0.11653305815532378,0.020004364474893076,0.029155908851820907,0.40234968489905076,0.46998200271091783,0.4060891289815357,0.41458629532038416,0.31251033513646,0.14839242188444388,0.35026441156943083
0.09297896461688555,0.2962551852635148,0.49530981970211774,0.3665816382778488,0.2513021279940239,0.05732499640148023,0.11609457560295666,0.0201579092114418,0.029078348610787525,0.3994404801586175,0.47259239872027897,0.4102347435705211,0.41744350196711993,0.31867950104532355,0.1483842326999954,0.3563851883280894
0.09037281606999717,0.3017820232361369,0.49550358532475763,0.3727035521029485,0.2533546471063326,0.05706466834101722,0.11560959550947443,0.0203087335410494,0.029035449489475198,0.3963642111846886,0.4750130198192861,0.4143432975324923,0.42029913596703145,0.32483281874640163,0.14835210195369697,0.36248947004417714
0.0877938357073836,0.3073270884402242,0.4956049732121212,0.3787871954750532,0.25540251674619535,0.056793683066051544,0.11507872099058787,0.020456944696344445,0.029026924861933805,0.393125225854263,0.4772405984278351,0.41841022808359235,0.42315552231216796,0.330963501731347,0.1482958579144397,0.3685704117229
0.08524249472155883,0.31288512468331614,0.4956159033810369,0.3848267137914576,0.2574415970575305,0.05651200675687484,0.11450256216804429,0.020602687223845385,0.029052474487104313,0.3897274541876842,0.4792726602628171,0.4224310767445218,0.4260148097576311,0.3370649743473688,0.1482155164477422,0.37462114795059454
0.08271929755825114,0.31845098234998925,0.49553850554229967,0.390816654321756,0.259467511420535,0.05621967328813815,0.113881796039446,0.02074614021446405,0.029111776880939494,0.38617465123677636,0.4811074352165223,0.4264013151594173,0.428878769250056,0.34313085978159485,0.14811120000715164,0.380634945704648
0.0802248052398451,0.3240196192083855,0.49537482098760566,0.39675193739269105,0.26147579727787773,0.05591675365660046,0.11321721378953845,0.02088751178265995,0.02920448075867116,0.38247063841303663,0.48274370460358623,0.4303161279531742,0.4317485981443923,0.34915493765601363,0.14798303865001142,0.3866053343664315
0.07775964819270607,0.3295860767372424,0.4951264840730536,0.4026277838332672,0.2634620553846212,0.055603320427911634,0.1125097542416115,0.021027031061899185,0.029330195926275438,0.3786195068472931,0.4841805889700063,0.43417018925911594,0.43462481205324405,0.35513106969539737,0.14783106406245589,0.39252620529965954
0.07532452915490151,0.3351454302874659,0.49479449007096465,0.40843959879150754,0.2654220838339707,0.05527940976240159,0.11176052271753803,0.02116493808487491,0.029488484826357176,0.37462577723533497,0.4854172831714621,0.437957539356514,0.43750728982934295,0.36105309307030203,0.14765513152660803,0.3983918741314174
0.07292021710612051,0.3406927122426435,0.49437918251238233,0.4141828137763641,0.26735199035865476,0.05494499019138924,0.11097079515576433,0.02130147200140232,0.029678857632304604,0.3704945125177453,0.4864527477254999,0.4416716547013548,0.44039543315864177,0.36691468227253377,0.14745491548828218,0.4041971000342418
0.07054753345775686,0.34622280830685503,0.49388046869870844,0.4198526905239513,0.2692482771535826,0.05459995406149443,0.1101420079046048,0.02143685815134475,0.029900772947434002,0.366231381703838,0.48728540799160275,0.4453056742977071,0.4432883537331592,0.37270918170481976,0.14722998419766417,0.40993705782653306
0.06820733196028994,0.351730328095409,0.4932981343898984,0.4254440998056355,0.27110789349078357,0.05424413756800725,0.10927573414124517,0.02157129589852782,0.030153642264190837,0.361842675094777,0.4879130006901095,0.44885267660406514,0.44618504114088603,0.37842943720566175,0.14697991148169354,0.41560726053491465
0.06590047392362307,0.35720946019973043,0.4926321417192262,0.4309513321408219,0.2729282526608259,0.05387735634678954,0.10837364834486789,0.021704951976060278,0.030436834671669157,0.3573352730095144,0.4883326755790824,0.4523059455978222,0.44908449900848013,0.38406770941858803,0.14670438661244642,0.42120343212527933
0.06362780040421358,0.36265385476271156,0.49188286974332807,0.43636804401711593,0.2747072112221574,0.053499441454425534,0.1074374806581999,0.02183796280407542,0.0307496799696848,0.35271657179651195,0.48854128333044955,0.45565920686174904,0.45198584328341074,0.3896157364587984,0.14640330855898412,0.4267213323208453
0.061390102994508866,0.36805660223745257,0.49105128616051696,0.44168738468492386,0.27644301010731703,0.05311027028689403,0.1064689632920664,0.02197044303112095,0.031091469763866366,0.3479943723622091,0.48853570698666,0.45890682254684384,0.45488835787979587,0.39506491070043737,0.1460768607693618,0.4321565376833806
0.05918809639910649,0.3734103311944026,0.49013904219888255,0.44690222956222175,0.27813417875215585,0.0527097914115191,0.10546977135271789,0.022102495016477867,0.03146145642884662,0.34317673761478995,0.48831316560952226,0.46204393546759065,0.4577915044748872,0.40040649049395405,0.1457255635103415,0.437504202934381
0.05702240069189163,0.37870737469243604,0.48914848657241233,0.4520054281360057,0.2797794050078559,0.05229804252805718,0.1044414648599441,0.022234216609694393,0.031858849926826374,0.3382718260744113,0.4878714719325151,0.4650665544711961,0.4606948849849464,0.4056318069578785,0.14535030180970418,0.4427588845166221
0.05489354190215471,0.3839399486478493,0.4880825985244114,0.4569900307371096,0.2813773750931146,0.051875161042257666,0.10338545049243124,0.02236570664317788,0.032282812574796996,0.3332877094192788,0.4872092337513221,0.46797157551762136,0.46359815711324265,0.4107324544034058,0.1449523281503206,0.44791453353933725
0.052801969413103125,0.38910032034752035,0.48694484410491723,0.46184948449211966,0.2829265926198843,0.05144138701886354,0.1023029829020823,0.02249706793398446,0.03273245279143909,0.3282321819167653,0.4863259910252651,0.4707567355155324,0.46650090528229854,0.4157004560291132,0.14453324020193245,0.4529646720588041
0.050748079071578966,0.3941809597305422,0.4857389637427172,0.4665777896250038,0.2844252172129403,0.05099705857007387,0.10119520240365933,0.022628407705839636,0.033206821008934566,0.32311259194755826,0.4852222832569369,0.47342049876508174,0.4694024711624687,0.4205283970277153,0.1440949349895675,0.4579026591746099
0.048732233320959724,0.3991746662124894,0.4844687026638371,0.47116960853172307,0.2858710068573849,0.05054260001915238,0.10006318604828174,0.02275983546054613,0.033704910990694316,0.31793576823571934,0.48389964455497964,0.4759618787323559,0.4723017498094988,0.4252095181061019,0.14363954193210074,0.46272195984244946
0.046754776085554325,0.40407466428551936,0.48313750127288724,0.4756203216441473,0.2872614080508877,0.05007850344660517,0.09890799459442179,0.02289145844407444,0.03422566612740358,0.31270808330124084,0.48236052673933455,0.4783802006862396,0.4751969869034263,0.42973776361348826,0.1431693380906416,0.46741638427275684
0.04481604245686626,0.4088746618997763,0.4817482110174827,0.4799260259794961,0.288593735040568,0.04960530446824603,0.09773071026823651,0.02302337496168562,0.034767987682328756,0.3074355984477441,0.48060815378691824,0.4806748133307495,0.47808567341418023,0.4341077799632946,0.14268664970064018,0.4719802864097848
0.042916363454953435,0.4135688667073585,0.48030297817432444,0.4840834743687223,0.28986535838524086,0.04912355330154026,0.09653246436351587,0.023155665893698205,0.03533074279250546,0.302124211264941,0.4786463137064567,0.48284476720981784,0.480964612959891,0.43831486176989337,0.1421937445892395,0.47640871138717644
0.04105606632945359,0.4181519566049939,0.47880337416404023,0.48808995559151025,0.2910738721466468,0.048633782341196856,0.09531445415821639,0.023288385107821795,0.03591277132413665,0.2967797765622408,0.47647909644868836,0.48488853385649805,0.483830116014891,0.4423548450355842,0.1416927335680369,0.4806974837689732
0.03923547101909304,0.4226190026063417,0.4772506691817289,0.4919431179289271,0.29221723305790764,0.04813647485111631,0.09407794905356885,0.023421551145532116,0.03651289100358193,0.291408198132686,0.4741105885899493,0.48680391111528465,0.4866782236732999,0.446223948739533,0.14118552446460172,0.4848432307306232
0.03745488350187612,0.42696534385673046,0.4756461051777256,0.49564074088480176,0.29329386613640396,0.04763204700313842,0.09282428625657199,0.023555144427624734,0.03712990028905466,0.28601549055128705,0.4715445499745666,0.4885881847799927,0.4895049112651557,0.4499185682156522,0.14067385559981704,0.4888433370103916
0.03571458683890575,0.43118641650707706,0.4739911125521195,0.49918046193061816,0.2943027325566927,0.04712085385344662,0.0915548567121085,0.023689111740060022,0.037762578520971014,0.28060781144465696,0.46878415621902036,0.4902384406441248,0.49230625792992566,0.4534350256741833,0.14015937757645486,0.49269583134651634
0.03401483074348169,0.4352775401139642,0.47228746018744777,0.5025594820210841,0.29524335711629685,0.0466032143060588,0.09027108233351773,0.023823374669396394,0.03840968298924393,0.2751914658008014,0.46583193974206155,0.4917518893816073,0.49507857356569,0.45676929419474754,0.13964373699914356,0.49639920707564295
0.032355820607368434,0.4392336739878162,0.47053733206869086,0.5057743342045116,0.2961158142470014,0.04607944128541797,0.0889743858689228,0.02395783789814328,0.039069942680531024,0.2697728848785608,0.46268996814482366,0.4931261523446349,0.4978184762009656,0.4599167640615205,0.13912864403055297,0.49995218246403567
0.030737708511745464,0.44304920315232876,0.46874332769401217,0.508820842520808,0.29692067317699994,0.04554986882220682,0.08766615496613078,0.024092395788410433,0.03974204861314133,0.2643585830936007,0.4593601452837141,0.49435949763556714,0.5005229148195002,0.46287217708918654,0.1386159213096737,0.503353409037188
0.029160591148100233,0.44671787181958156,0.46690838755037867,0.5116943047352558,0.29765890446378784,0.04501487385438152,0.086347702155646,0.024226936879853733,0.04042464121890357,0.2589550968796721,0.45584451070074655,0.49545101803074876,0.5031891349246012,0.46562978286657003,0.13810753314334792,0.506601152854028
0.027624516803924696,0.4502329228543148,0.4650356488974041,0.5143897930830327,0.29833175162603126,0.04447489204843932,0.08502022647026915,0.024361346021786103,0.04111629828313259,0.253568909937574,0.4521454938198749,0.4964007448962717,0.5058145865608954,0.46818362453861684,0.13760559488397536,0.5096930371882487
0.02612949699673151,0.4535873627008781,0.4631282407597365,0.5169024616361486,0.2989405729434768,0.04393042719769905,0.08368479159045542,0.024495503966294876,0.041815531114843756,0.24820636948673233,0.44826611477979406,0.4972096950072342,0.5083967770089839,0.47052784025689126,0.13711236337864674,0.5126259862444292
0.024675517351041315,0.45677424486041507,0.46118903018075036,0.519227819999358,0.2994866596140909,0.04338205402086934,0.0823423335308021,0.02462928436465946,0.0425207935625882,0.24287359813147846,0.4442101261815135,0.49787985002224133,0.5109330728179066,0.4726569373954292,0.13663021026846314,0.5153964127739459
0.023262545911552725,0.4597869299064624,0.45922036463662896,0.5213619628348033,0.29997104715468037,0.04283041445425693,0.08099369193051141,0.024762548228315553,0.0432304997830178,0.23757640576018157,0.4399820926064964,0.49841407113130654,0.5134204581276923,0.4745660292722816,0.13616158068738188,0.5180005355891982
0.021890538838945723,0.4626193108889977,0.45722392543928503,0.5233017462836282,0.3003943729359478,0.04227620779334214,0.07963964787905081,0.02489513603294299,0.04394304441801612,0.23232021502935812,0.43558740738593127,0.49881595395229805,0.515855286979399,0.47625102534946406,0.1357089405208167,0.5204347015923836
0.020559443566276016,0.46526599395493107,0.455200788335079,0.5250449042801514,0.3007568528881794,0.04172017528318257,0.07828095783615886,0.02502685826411839,0.044656822439078335,0.2271100310127499,0.43103224865312667,0.4990896309785163,0.5182331369681046,0.47770876747883856,0.13527471580802386,0.5226956662122169
0.019269199612205235,0.4677224254664623,0.4531516443248393,0.5265900999638232,0.3010583890033022,0.04116307997203364,0.07691838096569498,0.02515748750538084,0.045370247685721794,0.22195047071093368,0.4263234790767247,0.4992395306796576,0.5205488635488428,0.4789371066575883,0.1348612280923539,0.5247808207273627
0.018019737348070854,0.46998495878233093,0.45107705719738683,0.5279369097972618,0.3012987390997725,0.04060568281985595,0.07555269920022177,0.02528675712674983,0.0460817691088837,0.2168458252588854,0.4214684957528355,0.49927010365828706,0.5227968230941302,0.4799349168807748,0.1344706318854942,0.5266883571370805
0.016810975095723584,0.47205085611258585,0.44897768472470934,0.52908574049813,0.30147768259240904,0.04004871671483453,0.07418472965772165,0.025414368438514492,0.04678988375827512,0.21180011930565512,0.4164750384467639,0.4991855270223537,0.5249711526063146,0.48070204494692953,0.13410486848537997,0.5284173638093889
0.01564281498956882,0.4739182233765524,0.44685444243905675,0.5300376813874929,0.3015951598086294,0.03949286425871728,0.07281532933830746,0.025540002693242313,0.04749314562590872,0.2068171553442636,0.41135096565865176,0.4989894210119726,0.5270660349693114,0.48123919739657456,0.1337656533089973,0.5299678479782425
0.014515138357838733,0.4755858786813305,0.444708601660961,0.5307942971472365,0.3016513801117835,0.038938750537074907,0.07144539232535592,0.02566333369713794,0.048190169575855174,0.20190054276801264,0.4061040088048078,0.49868466914593057,0.5290759277726393,0.48154776805162275,0.13345449580405136,0.5313406841467994
0.013427802532203102,0.47705315777776447,0.4425418170438744,0.5313573681688798,0.3016468953705574,0.03838695591424483,0.07007583999133193,0.02578403935021335,0.0488796297499114,0.1970537123058866,0.40074152641076355,0.49827343058515317,0.5309957456844752,0.48162961178627894,0.1331727302312762,0.5325374904527697
0.012380641691746309,0.47831966251934566,0.44035608272421184,0.531728587579675,0.30158263669802937,0.03783803996150355,0.06870760495422724,0.025901811566235087,0.04956025203538927,0.19227991709261116,0.39527032202999485,0.4977573180392594,0.5328209881606142,0.4814867721131609,0.1329215384807088,0.5335604379350873
0.011373472152116067,0.4793849608235579,0.4381536200103786,0.531909234557769,0.301459913817862,0.037292565385280266,0.06734160973776535,0.02601636408071855,0.050230800407852355,0.187582222135447,0.3896966132988972,0.49713763179449283,0.5345478064288854,0.4811211718362801,0.13270195966447965,0.534412000287706
0.01040609949722067,0.48024826641667817,0.4359367032062065,0.5318998995654461,0.30128037784222667,0.036751117897060114,0.06597874125080512,0.026127437733825143,0.050890057209881455,0.18296348433490786,0.38402616341287255,0.4964155756495108,0.5361730060896198,0.4805343015956495,0.13251488680894186,0.5350946539884399
0.009478324990177166,0.48090819332303286,0.4337074334485855,0.5317004006146642,0.30104594961294895,0.03621432136411228,0.06461982231460114,0.026234802911670786,0.05153679768692295,0.17842632549078788,0.37826448657591355,0.49559243597144753,0.5376939842192945,0.4797270102855463,0.13236105172718404,0.5356105405583198
0.008589950413156057,0.48136272097570143,0.431467493164262,0.5313099493713407,0.30075871701334317,0.03568284779941251,0.06326558496902271,0.026338258940333474,0.05216975991689839,0.17397310087426163,0.37241704355587724,0.49466972164728285,0.5391086024495789,0.478699514429022,0.13224099982814788,0.5359611498690314
0.007740781230591713,0.48160939826461424,0.4292179738117924,0.5307274590579328,0.3004208057573792,0.03515742198159149,0.06191665758633923,0.026437630347129808,0.05278761703854175,0.1696058686919586,0.3664894010740626,0.4936492643862342,0.5404150000117257,0.4774516177418303,0.13215506102312205,0.5361471748965326
0.0069306280641256,0.481645667387424,0.42695938391515975,0.5299518624445485,0.30003422906798927,0.034638820730648674,0.060573574751431845,0.02653276002843256,0.05338896726065268,0.16532637264826142,0.36048735223984474,0.49253328031413957,0.541611353086183,0.47598301802886034,0.13210333222694381,0.5361686370831777
0.006159306558634299,0.48146918776804015,0.4246918359667914,0.5289823920493253,0.29960072537487764,0.03412786709212416,0.05923680329364731,0.026623499487292458,0.05397235077221722,0.161136049075415,0.35441699697025203,0.49132439502768305,0.542695588888516,0.4742936042718085,0.13208568529252857,0.5360251859419972
0.005426635802500245,0.48107811743552004,0.42241530503785196,0.5278188135914448,0.2991216184940837,0.03362541989164405,0.057906771431467614,0.02670969642236898,0.054536284041977814,0.15703605458546607,0.34828478297258575,0.49002563520460335,0.5436650862219528,0.4723837135039915,0.13210179576658468,0.5357164202592068
0.004732435537984984,0.48047134092428956,0.42012986884746123,0.5264616055463026,0.2985977681138447,0.03313235930423567,0.056583894555781694,0.026791180057241456,0.05507929745912794,0.15302729863776945,0.3420975093492587,0.48864039048014324,0.5445164619530686,0.47025433946998135,0.13215117661536369,0.5352421693608552
0.004076522915947723,0.47964863494277094,0.4178358980322669,0.5249120796769658,0.2980296423516857,0.03264956923103614,0.055268596276903205,0.026867746766234112,0.05559997064613784,0.14911047002199126,0.3358622961545697,0.4871723496078053,0.5452455669635289,0.46790728690420963,0.13223320651350878,0.5346027233616741
0.0034587107752742335,0.4786107656213602,0.415534187142295,0.5231724395763112,0.2974174597928869,0.03217791738452183,0.0539613242432811,0.026939153007049563,0.05609696394458157,0.1452860542660794,0.32958652425400736,0.48562541495252354,0.5458476990447386,0.46534526729986,0.13234714903298445,0.5337990046769027
0.0028788094471054316,0.4773595139770003,0.413226020173564,0.5212457764649239,0.2967613340468947,0.03171823612912801,0.05266256045704532,0.027005120927916387,0.05656904466685526,0.14155434165992922,0.32327775058442837,0.4840035991626917,0.5463179156788114,0.46257193419680426,0.1324921609699503,0.5328326754558368
0.0023366317271575664,0.4758976291917594,0.4109131680479863,0.5191360036671926,0.2960613962893203,0.031271311817379265,0.051372826029826915,0.027065353189296214,0.05701510686196642,0.13791542605316714,0.3169436043804355,0.4823109074929602,0.5466513438725241,0.4595918582102082,0.1326672886701592,0.531706178124267
0.0018319988301578839,0.4742287122617635,0.40859781916735144,0.516847733252871,0.2953178916085147,0.03083788897962174,0.05009268053334264,0.027119550069687307,0.057434183557573626,0.13436919502778502,0.3105916701251309,0.4805512087683056,0.5468434522479612,0.4564104441641877,0.13287145189478794,0.5304227087992143
0.0013647457028855108,0.4723570353975519,0.40628244779368117,0.5143861002118338,0.29453124601909886,0.03041868583778515,0.04882271629523725,0.02716742554515407,0.05782545070589472,0.1309153136772411,0.3042293629208038,0.47872809745982536,0.5468902754577835,0.45303379470578375,0.13310341547248022,0.5289861258626961
0.000934725150032418,0.47028730512232175,0.40396962834139954,0.5117565411639208,0.2937021021424379,0.030014412463884373,0.047563548164698544,0.02720872153508422,0.058188222368003875,0.12755321067674985,0.29786380168595794,0.4768447488493304,0.5467885827325185,0.4494685265786529,0.1333617532641864,0.5274007983563032
0.0005418105839053431,0.4680243792080088,0.40166180652358013,0.5089645359439321,0.2928313227434583,0.029625786620700933,0.04631579941860445,0.027243219803965515,0.0585219370069592,0.12428208176414114,0.2915016927778205,0.47490376884958274,0.546535984395771,0.44572154726757274,0.13364482104646913,0.525671400998395
0.00018589728298762663,0.46557294931733034,0.3993610575953723,0.5060153214077271,0.29191996251086655,0.0292535460706949,0.04508008459301619,0.027270751092602068,0.05882613511104117,0.12110091741447031,0.2851492570300877,0.472907050229305,0.5461309724260848,0.4417998009306518,0.13395076066448172,0.523802664456059
-0.00013309787617100106,0.46293723556103744,0.3970689143662245,0.5029136071161053,0.29096920963085204,0.02889845702640857,0.04385699010374312,0.027291201150944463,0.05910042871915655,0.1180085449902583,0.2788122341629313,0.4708556778513701,0.5455728935198915,0.4377099933771119,0.13427754003264453,0.5217990909646351
-0.0004152381686255745,0.4601208145080115,0.3947863610834216,0.499663380924801,0.28998029979220163,0.028561318598706212,0.04264705418206397,0.027304513454545265,0.059344463755735676,0.11500367286133217,0.272495955286163,0.4687499350831177,0.5448618555330977,0.43345833389351235,0.13462301220784137,0.5196646628550167
-0.0006605701297355806,0.4571266819256288,0.39251399117755753,0.4962679075810959,0.2889544062363961,0.028242963281403854,0.041450751035930794,0.027310688503140314,0.0595578763870579,0.11208493132520277,0.26620543858202905,0.46658941114806607,0.543998570562891,0.4290503932636807,0.13498497696496178,0.5174026283092548
-0.0008691278127172538,0.4539574967177004,0.39025222811012655,0.4927299164066258,0.2878925102971991,0.027944253683945573,0.04026848750884558,0.027309779718456315,0.059740249945574954,0.10925090860989269,0.2599454756585137,0.464373157431742,0.5429841401915029,0.4244911585956299,0.13536123813909237,0.5150154761568048
-0.0010409370810321675,0.45061587159085853,0.38800152387845954,0.48905186930424044,0.28679526579470127,0.02766607588029219,0.039100614953858054,0.027301886074736253,0.059891090720128104,0.10650018045693868,0.2537207006511246,0.46209985040255946,0.5418197904693988,0.41978523708883336,0.1357496537400871,0.5125051123815141
-0.0011760171903886275,0.4471046335297399,0.38576250682350405,0.48523621998805555,0.2856628991290643,0.02740932987561646,0.03794744895050465,0.027287141705474527,0.060009838432538314,0.1038313320587473,0.2475356422037832,0.4597679484954267,0.5405065659931481,0.41493709689986935,0.1361481761096339,0.5098731300718538
-0.0012743778552859338,0.4434270347530509,0.3835360721590682,0.48128563722322193,0.284495200812081,0.027174917797446053,0.036809288630029094,0.027265702829377837,0.06009590434995425,0.10124297144845538,0.24139475901324167,0.4573758397852214,0.5390450121288697,0.40995128335983966,0.13655487978485809,0.5071210721691007
-0.001336013437933928,0.43958690795275546,0.38132341200264513,0.47720318659807903,0.28329161574041994,0.026963730490697727,0.03568643281913165,0.027237732424170744,0.06014871774246731,0.0987337337974191,0.235302460071876,0.4549219768323373,0.5374349390922136,0.40483259639806424,0.13696797523652388,0.5042506537947625
-0.0013608968854789997,0.4355887620811247,0.3791259851872108,0.4729924668689611,0.28205138029585824,0.026776633284466878,0.03457919267012733,0.027203383146015447,0.06016776948810882,0.09630227645016425,0.22926311108688047,0.45240499475018353,0.5356753957496143,0.3995862253263348,0.13738580723993885,0.5012639374124691
-0.0013489745069185982,0.4314378174833765,0.37694543056735624,0.4686576984994692,0.2807736574878281,0.0266144534202635,0.03348790059777009,0.027162780525168864,0.060152649723897694,0.09394726490348508,0.22328102879268968,0.44982380837575775,0.5337648723710164,0.3942178388445511,0.13780683728528564,0.4981634559540498
-0.001300161860270217,0.42713998166371436,0.37478343070397463,0.4642037636057113,0.27945765348185087,0.026477974561188097,0.032412915494780814,0.027116012329146236,0.060103078170286116,0.09166735030003016,0.2173604650163488,0.44717768446106027,0.5317016140828967,0.38873362983572696,0.13822961011178614,0.49495228103534
-0.0012143409678968362,0.4227017693124113,0.3726415355389102,0.4596361980642739,0.27810271142459486,0.026367941187997273,0.03135462434324723,0.027063130105927324,0.06001892604224161,0.08946113934271917,0.21150558241414033,0.4444662850752279,0.5294839321928289,0.383140316158249,0.13865270512665284,0.49163403542811046
-0.0010913590146521992,0.418130172315006,0.3705209622393913,0.45496113799318194,0.2767083793293386,0.02628506842165938,0.03031344047201927,0.02700416163775441,0.0599002287895989,0.08732715783171655,0.20572042378532035,0.4416896789299486,0.5271104750546087,0.37744510015450805,0.13907467411569188,0.4882128509651991
-0.0009310286132203403,0.41343248723065856,0.3684224206743243,0.45018522413550166,0.2752744497447529,0.02623005139164794,0.029289798826028047,0.026939127538770237,0.05974718926779327,0.08526381440301775,0.2000088767997413,0.4388483181123339,0.5245804496036391,0.3716555909246937,0.1394939672401736,0.48469327496517917
-0.0007331296473692039,0.4086161091026354,0.366346052925289,0.4453154688238725,0.27380096996002284,0.026203572077198745,0.028284148708017876,0.026868057215453395,0.0595601713116491,0.08326938273264348,0.19437463586514872,0.43594297871156307,0.521893786539051,0.3657796945196293,0.139908860369356,0.4810801300056073
-0.0004974126305553626,0.40368830140804673,0.364291523212075,0.4403590911536457,0.2722882225640494,0.026206303464714194,0.027296944523578903,0.026791002814805735,0.05933968405338473,0.08134201764826253,0.1888211627206466,0.43297466502356513,0.5190512442170704,0.35982547805565285,0.14031741941504558,0.47737833339315
-0.0002236034481338862,0.3986559605285578,0.3622581854504261,0.43532332672315044,0.2707366772387145,0.026238911008636588,0.02632863510480264,0.02670805079375829,0.05908635767587753,0.07947979783172493,0.18335164718681954,0.42994447836224003,0.5160544485699631,0.3538010143291645,0.1407175288478648,0.47359268392786885
8.859071018210834e-05,0.39352543107751164,0.36024523941850506,0.4302152188002773,0.26914691568847493,0.026302051524006997,0.02537965220565543,0.02661933082787241,0.05880091160890003,0.07768077631686207,0.17796897176267468,0.4268534529347314,0.5129058686903958,0.34771421380268064,0.1411069666460803,0.46972762450226546
0.00043947481132739006,0.38830246038267346,0.3582518422992775,0.42504139865000884,0.2675195325552774,0.02639636976971516,0.024450399019018736,0.026525021868522968,0.058484116446524494,0.0759430282977579,0.17267569084199477,0.4237023626818638,0.5096087300326997,0.3415726508538651,0.14148349040870448,0.46578701290913554
0.0008293607080497203,0.38299231553668145,0.3562771697435514,0.4198078916804464,0.2658550160073047,0.026522493095931764,0.023541241224231187,0.026425355252008856,0.05813675107779004,0.07426469343315595,0.16747403689430237,0.4204915174434135,0.5061668693930695,0.3353834107974237,0.14184491782524986,0.461773988444413
0.0012585657990170393,0.3775999809261656,0.3543204236840214,0.41452003866534404,0.2641536131792296,0.026681024622129835,0.022652504869454918,0.026320614858158935,0.05775955874432158,0.07264401132143082,0.16236595171269005,0.41722061315170433,0.5025845378580875,0.32915302236332505,0.14218919735942817,0.4576910129328495
0.0017274161885039053,0.3721303492410137,0.3523807873362854,0.40918258430600274,0.26241520678664787,0.02687253547926971,0.021784482446037666,0.026211134406834872,0.057353213734704145,0.07107934907313693,0.15735312713690897,0.4138887257018917,0.4988661596799111,0.32288751496333523,0.14251446649641422,0.4535400540855027
0.0022362520384081323,0.36658837705576774,0.3504573309618728,0.40379986707974125,0.26063926621893,0.02709755681861301,0.020937442991407946,0.026097292065347843,0.056918315460571065,0.069569220197008,0.15243704296342847,0.41049446380563215,0.4950160564829728,0.3165925524885325,0.14281909535528456,0.44932281226894055
0.002785432779452708,0.36097920155094576,0.348548874859337,0.39837601756289626,0.25882491176965083,0.027356573122130447,0.020111641626039036,0.02597950261565043,0.05645541302769968,0.06811229432838496,0.14761899871184164,0.4070362014176764,0.49103815264335376,0.3102735722402645,0.14310171400014035,0.4450409292868061
0.00337534134416072,0.3553082166719389,0.346653833482771,0.3929151319164992,0.2569710497926026,0.02765001909606622,0.019307327057902873,0.025858207495082906,0.05596504457168065,0.06670739765449367,0.14290013902124624,0.4035123128953978,0.48693572355975473,0.30393590133179343,0.14336122237331228,0.44069616289621866
0.0040063872072739985,0.34958110871462544,0.3447701080811549,0.3874214170111493,0.2550765164825222,0.02797828056838924,0.018524747014011002,0.0257338630767174,0.05544777581473984,0.06535350421702078,0.1382814725911424,0.39992138364579055,0.4827113098352048,0.2975848476956697,0.14359678239825818,0.4362905222611472
0.004679008071146819,0.34380385291152826,0.34289510301682946,0.3818993046641403,0.2531402064171662,0.02834169674391679,0.01776415165392745,0.025606927593761666,0.05490423267469401,0.06404971858696837,0.1337638847240028,0.39626238845027906,0.4783668553837064,0.2912257649978495,0.14380779243392164,0.4318263610280837
0.00539367009086935,0.3379826740110501,0.3410258629056605,0.37635353348261685,0.2511611815551314,0.028740561055311503,0.017025795105961514,0.025477847136419894,0.054335127040497117,0.06279525069812186,0.12934814367138744,0.39253483071984585,0.4739039737228625,0.28486409173045063,0.1439938448823048,0.42730642626155846
0.006150866593512807,0.3321239750473914,0.3391592564378326,0.3707891978195098,0.24913875709452185,0.02917511968603385,0.016309935339546267,0.025347041725809788,0.053741275116253207,0.061589383883396194,0.12503490113142882,0.3887388373200631,0.4693242205836159,0.2785053656402717,0.14415466833385193,0.4227338630422446
0.006951115304971308,0.32623423945526153,0.3372921459095926,0.3652117643242183,0.24707256143149595,0.029645568297340327,0.015616832644210862,0.025214894767960475,0.05312360803479208,0.060431437374221506,0.12082468738970112,0.3848752052612498,0.4646293287757012,0.27215521542342985,0.14429005616004295,0.41811217605443624
0.0077949541536586455,0.32031991236963714,0.33542152042243584,0.3596270574804009,0.2449625683850317,0.030152049349299298,0.014946747024612931,0.025081750806521523,0.05248317474041281,0.05932072468989444,0.11671790173385835,0.38094539840182756,0.4598213985055048,0.26581933225840143,0.14439978391133612,0.4134451509224187
0.00868293577043466,0.3143872673580449,0.33354458470514625,0.35404121634556246,0.24280910084249316,0.03069465321507549,0.014299934841506047,0.02494792257305483,0.051821137426004506,0.058256512326615266,0.11271479890063867,0.37695149428082425,0.45490303812025984,0.25950342424727413,0.14448351984700275,0.40873673935071086
0.00961562084661475,0.3084422649652359,0.33165879803277737,0.34846062542212924,0.24061280599441479,0.031273423899057504,0.013676645030460486,0.0248137026296924,0.051138760071560416,0.05723799172856618,0.10881547242641261,0.3728960831894449,0.449877452164548,0.2532131571814328,0.1445407472459771,0.4039909132405124
0.010593570545255216,0.3024904245503353,0.3297618605170512,0.3428918231821569,0.23837460332907623,0.03188836746973602,0.013077115214596717,0.024679374904291337,0.05043739086014067,0.056264279737287,0.10501983687623492,0.36878212351997874,0.4447484756069316,0.24695408524330786,0.144570736889677,0.3992114938609079
0.011617338464681364,0.29653676203561613,0.3278516469644917,0.3373413922271837,0.23609560751188283,0.0325394612388909,0.012501567996375319,0.024545224617119454,0.04971843943624539,0.05533444684017114,0.10132761536797075,0.364612759203271,0.4395205550509256,0.2407315753061851,0.1445725890285413,0.39440196282466267
0.012687463828606374,0.2905858302232194,0.325926091378843,0.33181583538541104,0.2337770291478887,0.03322666266339241,0.01195020766933769,0.02441154642383866,0.04898335011457178,0.05444755690756022,0.09773834224849624,0.3603911065808462,0.43419867961325737,0.23455072840986974,0.14454531666303652,0.38956528225452924
0.013804468466875127,0.28464182850485037,0.32398302786581656,0.3263214422288762,0.23142005718660832,0.03394991725122264,0.011423217713522105,0.02427865066288934,0.04823357224082465,0.05360270502687544,0.09425138340581017,0.3561200248824046,0.4287882658671311,0.22841630541026567,0.14448793310856245,0.38470379724997533
0.014968858289567288,0.27870872269849256,0.32202000817387394,0.32086415053587747,0.22902572734843973,0.034709164748840456,0.010920759721674025,0.024146867658551677,0.04747052894968644,0.05279904934109332,0.09086596521536516,0.3518019230244696,0.4232950027506453,0.22233267620817093,0.14439953026673857,0.37981928157512573
0.016181127090156344,0.27279034723261825,0.32003416095949005,0.31544942246731483,0.2265947973514451,0.03550434292054128,0.010442974041420064,0.024016550091776657,0.046695588630595364,0.05203583610569574,0.08758120264698759,0.3474387011421984,0.4177246635820489,0.21630381755019393,0.1442793453168632,0.37491309402526446
0.017441760392797535,0.26689048496651724,0.3180221832016894,0.31008218652057984,0.22412768402698377,0.03633538830272733,0.009989981365154322,0.023888073507355202,0.045910049928794945,0.051312417445928,0.08439612322263097,0.3430318688991451,0.41208289326690634,0.21033335984324836,0.1441268139594154,0.36998636463008294
0.018751238563528973,0.2610129237313888,0.3159804823877184,0.30476688055558937,0.22162450444741624,0.037202233425461875,0.00956188415853259,0.023761835076447625,0.045115148327246765,0.0506282615775874,0.08130968617420757,0.3385827621086927,0.40637498085342544,0.20442465424379455,0.1439416088116121,0.3650401650328734
0.020110039043162664,0.25516148959689966,0.3139053929210551,0.299507562897464,0.2190851923977339,0.038104800136343195,0.009158767442430066,0.023638250776477653,0.04431207802708185,0.049982955538590654,0.07832079633226782,0.3340927614904697,0.4006056592584892,0.1985808346125209,0.14372366205552137,0.36007565192208524
0.021518637588796494,0.24934005771584794,0.31179338968127435,0.2943080345729147,0.2165096317554581,0.03904298883269306,0.008780699002698095,0.023517751184703523,0.04350201668004444,0.049376200754124105,0.07542831247873968,0.3295634786172452,0.3947790271135932,0.19280486703556782,0.14347317195383782,0.35509417991729325
0.022977508439377653,0.24355254234963164,0.3096412699574675,0.2891719471316855,0.21389777752062977,0.04001666360144491,0.00842772943663861,0.02340077610667612,0.0426861466529751,0.0488078020145729,0.07263105011195753,0.3249969029943134,0.3888986451447274,0.18709958668021975,0.14319059335919437,0.3500973814580704
0.0244871233472253,0.2378028683097912,0.30744629505538285,0.28410289193207466,0.2112497578250732,0.041025635770015674,0.008099892685075492,0.023287768276049454,0.04186567160340646,0.04827765067277777,0.06992777879073682,0.320395505933983,0.3829677354047068,0.18146772221232496,0.14287661283295564,0.34508721243516444
0.026047949440888837,0.23209492655269312,0.30520628495251345,0.2791044696539755,0.20856595393995958,0.042069654062763556,0.007797207343825625,0.023179166367899465,0.04104182813999232,0.047785703056802735,0.067317214436617,0.3157622987664169,0.37698938527686937,0.17591190841504292,0.14253210944354636,0.3400659634958778
0.02766044590458627,0.22643251702828313,0.302919661746322,0.2741803394348815,0.20584705614924806,0.04314840937121194,0.007519678327493345,0.023075397564177556,0.04021589253983025,0.04733195523917226,0.06479800716994767,0.31110084487726747,0.37096672062651687,0.1704346880036228,0.14215810271916274,0.3350362381079566
0.029325059475559932,0.2208192821083114,0.30058544017923655,0.2693342476466121,0.20309409427084898,0.044261552513025874,0.007267298307662341,0.022976869897931858,0.03938918268292933,0.046916415398123745,0.062368725427369195,0.30641522699289053,0.36490304361284603,0.16503850392133415,0.14175568957423312,0.3300008995389167
0.031042218773267443,0.21525863400829517,0.29820316609615793,0.26457003692705544,0.20030844255091512,0.04540871735810266,0.007040048661637887,0.022883964583644185,0.0385630555355356,0.046539075047611296,0.06002783989030715,0.3017099729583306,0.3588019321215296,0.1597256836227898,0.1413259723049264,0.3249629898651976
0.032812327484055825,0.20975368337074385,0.29577280616458995,0.2598916366370812,0.19749179959198965,0.04658954437651537,0.006837899842356375,0.022797028820954676,0.03773890066304963,0.04619988113063514,0.0577737167685122,0.29698994489093705,0.35266729928610807,0.1544984170009931,0.14086997995072875,0.3199256249386133
0.0346357564328322,0.2043071894397449,0.29329459444171724,0.2553030364144009,0.1946461448661444,0.047803702779415355,0.006660811120427015,0.02271637063457071,0.03691813037531912,0.0458987144526324,0.05560462846709637,0.2922601979725775,0.34650341307732646,0.14935872969452268,0.1403885907495773,0.31489186988328427
0.03651283458046597,0.1989215587809917,0.29076884330012503,0.2508082449316189,0.19177367417546268,0.04905091002142104,0.006508729968991764,0.022642257888925005,0.036102167198930724,0.04563538272646533,0.05351877779502941,0.2875258162086817,0.340314877397128,0.14430845352457397,0.1398824791393484,0.30986460015801576
0.03844383899357363,0.1935988946517443,0.28819573121701175,0.2464112363247574,0.1888767171235787,0.05033094745448463,0.006381592027523869,0.022574921634755267,0.035292429430792596,0.045409629672879856,0.051514325838178596,0.28279173319153195,0.33410657746585876,0.13934919617389988,0.13935211489676705,0.3048463568814193
0.04042898452538968,0.18834106857051885,0.2855751149470847,0.2421158870326444,0.1859576402277422,0.051643671003954665,0.006279322510188872,0.022514561465649792,0.03449031555416318,0.045221151060328334,0.04958941792562966,0.27806256394785156,0.3278835934904861,0.13448231698326704,0.13879781338594155,0.2998392281135028
0.042468415812622694,0.18314978808879462,0.2829064627914984,0.23792590597034022,0.18301873971156257,0.05298901587782819,0.00620183885374802,0.02246135079878793,0.03369718829301584,0.045069608553965884,0.047742206164832116,0.2733425129266031,0.3216510876081465,0.1297089227101692,0.13821980787308508,0.29484481513204464
0.04456220456534583,0.17802665281259097,0.28018895789538134,0.23384476104696225,0.18006213454933548,0.05436699451722385,0.006149053859836802,0.022415441512766785,0.032914360704537536,0.04495463858678866,0.04597086785066318,0.2686354093245565,0.31541416988143034,0.1250298894335765,0.1376183201940988,0.28986430798912877
0.046710352088963285,0.17297319785801663,0.2774217001608388,0.22987560502779208,0.1770896908925647,0.05577768724440616,0.006120878909359394,0.02237696796031964,0.03214308986547376,0.04487585623782266,0.044273619223242,0.26394483633198496,0.30917774965710915,0.12044589848188873,0.13699362261998277,0.28489862150070916
0.04891279439793993,0.1679909244072641,0.2746039120204216,0.22602121134263942,0.1741030171509374,0.057221225355971836,0.006117227074166168,0.02234605038801622,0.031384581438324885,0.04483285434397168,0.0426487242364826,0.2592742795945399,0.30294638663741863,0.11595747146991103,0.13634608951618735,0.2799485331685319
0.051169407921769106,0.16308131749171953,0.2717351126199403,0.22228394528163067,0.17110353138911527,0.058697766731953496,0.006138015970907543,0.02232279780294495,0.03064000075914216,0.044825198297779034,0.041094498195359125,0.2546272538834645,0.29672418349153873,0.11156499940668549,0.1356762377186987,0.27501480277251483
0.053480015186250014,0.15824585155343676,0.26881525423458524,0.21866578583283977,0.16809256027858197,0.06020746437319206,0.006183170209305665,0.02230731032785561,0.029910483958868913,0.04485241718278312,0.03960930631609387,0.2500073989119684,0.2905147756566824,0.10726876555775663,0.1349847548921762,0.27009827110342916
0.05584439022798583,0.15348598471381067,0.26584481661906983,0.21516837815665363,0.16507143365113883,0.06175042944640505,0.0062526233014123635,0.02229968108164474,0.029197146470649554,0.044913992062445986,0.03819155745172577,0.2454185425516245,0.28432142378317554,0.10306896198499961,0.13427251548383412,0.265199936102736
0.05826226346165845,0.14880314299976377,0.26282485699263874,0.21179308670644376,0.16204156346123458,0.06332669741718623,0.006346318918550168,0.022299997612182598,0.02850108863557048,0.04500934238115019,0.036839693398232363,0.24086473127050687,0.27814715186166206,0.09896569991181779,0.13354058423146017,0.26032100548506437
0.060733325683151214,0.14419869603638638,0.25975701538315704,0.20854103667159407,0.15900450541365563,0.06493621542311684,0.0064642114071277535,0.02230834289443178,0.02782339842558592,0.04513781321129757,0.03555217434708229,0.23635022911850762,0.2719948782385904,0.09495901426505854,0.13279020751609721,0.25546292570959
0.06325723085969774,0.1396739259063707,0.25664347700460477,0.2054131423285609,0.1559620022412358,0.06657886086014395,0.006606265501847354,0.022324795889999322,0.027165151424529067,0.04529866912815303,0.0343274611736411,0.23187948795393323,0.26586752279894366,0.09104886292229009,0.1320227931615956,0.25062738791289135
0.0658335973338778,0.13522999099865765,0.25348689513126704,0.20241012228886457,0.15291600834871494,0.06825447950974811,0.006772455203502618,0.022349431646348537,0.026527408318545585,0.04549109779443251,0.03316399534355775,0.2274570927771196,0.2597680880114576,0.0872351213402213,0.13123987956775413,0.24581631209470403
0.06846200705443797,0.1308678867216348,0.2502902794842417,0.19953250218739338,0.14986869624277596,0.06996292667630248,0.006962761817227264,0.022382320896639645,0.025911210242225233,0.04571421865646565,0.03206017992866577,0.22308768696143103,0.25369971265254015,0.08351757335432632,0.13044309531522297,0.24103181144036434
0.07114200244645111,0.12658840838264565,0.2470568564012433,0.19678060588726326,0.14682244581680134,0.07170410460181557,0.007177171174477669,0.0224235291063231,0.025317572403126834,0.0459670904535555,0.031014370850079204,0.21877588281374535,0.24766569814137732,0.07989589901965034,0.12963411059384397,0.23627613915534404
0.07387308054886325,0.12239213031975017,0.24378990797600628,0.1941545367670858,0.14377981812795898,0.07347799423314438,0.007415670087242502,0.022473114901863638,0.024747476538243083,0.046248715087995426,0.03002488516995358,0.21452616323515794,0.24166950848540752,0.07636966040794158,0.12881458197818216,0.23155162056910208
0.07665468408118324,0.11827941511083608,0.24049259790440392,0.19165415108158082,0.14074351577421126,0.07528467957180972,0.007678242105287033,0.02253112781184894,0.024201864064770012,0.04655803741569491,0.029090021508840654,0.21034278057729539,0.23571474581160176,0.07293828841978851,0.1279860922024058,0.22686057353334363
0.07948618915447078,0.11425044869365926,0.23716781340475082,0.18927902572733982,0.13771633233584882,0.07712436308322654,0.007964863038014285,0.02259760525243154,0.02368163386547531,0.04689394073534315,0.028208082942522226,0.20622967004912676,0.22980510430839238,0.06960107835142598,0.12715008805554823,0.22220522029381803
0.08236688941562705,0.11030528388431578,0.23381809398205625,0.18702842398280256,0.13470109358230925,0.07899737097309086,0.008275497768939766,0.022672568698346145,0.023187646834224397,0.047255238319242616,0.027377397689477147,0.20219041411568742,0.22394430609563154,0.06635720035431072,0.1263078290965614,0.21758759405909017
0.08529597650814492,0.10644388014422378,0.2304456904585795,0.18490126813368746,0.1317005932578335,0.08090414754162496,0.008610100155653895,0.022756018997962365,0.02272073427379938,0.047640664275251696,0.026596336591657072,0.19822827528756742,0.2181360230542248,0.06320572093196981,0.1254603715763475,0.21300944880787845
0.08827251712654201,0.10266613639998698,0.2270527036339928,0.18289613238177038,0.1287175262519478,0.08284523828469884,0.008968616035024479,0.022847930815813593,0.022281706142632446,0.048048871270529966,0.025863326960120826,0.1943462647946981,0.21238378897044058,0.06014562678618984,0.12460859802722138,0.2084721979918461
0.09129543074323453,0.09897191647182604,0.22364122727657068,0.18101125896451412,0.1257544266594243,0.08482126190422433,0.009350987709246396,0.022948246352515706,0.021871357611513275,0.04847844013937258,0.025176862489026883,0.19054720615090465,0.206690906658095,0.057175846282529134,0.12375327277279044,0.20397691413754684
0.09436347845335061,0.09536106694747072,0.22021346632075703,0.1792445834196598,0.1228136302889,0.0868328718956651,0.009757158604957974,0.023056869710189623,0.021490473641915676,0.0489278980868334,0.024535509077463068,0.1868337799704333,0.20106036687637677,0.05429526746840087,0.12289509937356695,0.1995243895944959
0.0974752700632671,0.09183342760900046,0.21677182664893163,0.17759375407866493,0.1198972803110481,0.08888070887332325,0.010187077686855327,0.02317366505071172,0.021139831386735256,0.04939573964137488,0.023937906533827717,0.1832085499797687,0.19549481779618433,0.05150275236230755,0.12203477165417581,0.1951152239131275
0.10062928416643747,0.0883888347711886,0.21331897494522856,0.1760561404653241,0.11700736927297507,0.09096534639889103,0.010640703488129235,0.023298460406670468,0.020820200309430898,0.04988044764704554,0.02338276626766118,0.17967397120766593,0.1899966063864856,0.048797147376712646,0.12117301717469882,0.19074990825765598
0.10382389234393043,0.08502711811368222,0.20985786845662702,0.17462882973658939,0.11414579245307442,0.0930872423856576,0.011118007621677228,0.02343105524764394,0.02053234001525203,0.05038051321862364,0.02286886519524698,0.17623238225668172,0.1845678610059436,0.0461772898792163,0.12031063222756333,0.18642889814938846
0.10705738385976606,0.08174809177931362,0.20639175576632635,0.17330861205495815,0.11131439568459946,0.09524672029859313,0.011618977639171798,0.02357122901327183,0.020276995884782812,0.05089445359274386,0.022395036194813627,0.17288598431589902,0.17921057354851316,0.04364201103234133,0.11944850767920626,0.18215267355485265
0.11032798984466993,0.07855154066196542,0.20292415082503082,0.17209196389241416,0.10851501360368464,0.09744399231164662,0.01214361910983658,0.02371874951402376,0.02005489269179598,0.05142082686590251,0.021960155542231668,0.16963681013344212,0.17392666645826502,0.04119013517701753,0.11858764522659118,0.1779217857313327
0.11363390585542678,0.07543720291643065,0.1994587834550305,0.17097504906222596,0.10574949817023294,0.09967920727886143,0.012691956797462873,0.023873380913248744,0.01986672752122593,0.051958242713657905,0.021563127836850576,0.1664866865077864,0.1687180434827265,0.03882047613483858,0.11772916389633191,0.17373689062510833
0.1169733116210857,0.07240474978806721,0.1959995303083604,0.16995375034483784,0.10301973768652874,0.10195250062919997,0.013264034823141162,0.024034890987390634,0.01971316588537392,0.052505368329537574,0.02120286898829205,0.16343719397083184,0.1635866237863799,0.03653183089584568,0.11687429687236271,0.1695987689761017
0.12034438674852485,0.06945376388174258,0.1925503308033367,0.16902372334970162,0.10032766686804584,0.10426403721158509,0.013859915712863916,0.02420305735667942,0.019594844768472862,0.05306092900056145,0.020878288281893316,0.16048963103073227,0.15853435976693556,0.03432297122927359,0.11602437899047248,0.16550833360966052
0.12374532116417421,0.06658371936724661,0.18911509287414913,0.168180457744192,0.0976752687941362,0.10661404490066975,0.014479678244130434,0.024377672387659366,0.01951238171528374,0.05362370294105796,0.020588273390354326,0.15764499712331953,0.15356323957607232,0.03219263380266063,0.11518082547832985,0.1614666246864822
0.12717431912073526,0.06379397292225548,0.1856975934479351,0.16741933857930813,0.0950645697770249,0.10900283714514883,0.015123414024422858,0.024558546492434427,0.01946638618362916,0.05419251022893654,0.020331685675961622,0.15490400173854768,0.14867527591781066,0.03013951031312798,0.11434510274186921,0.15747479393142047
0.1306295957007584,0.061083772447605655,0.18230138500372345,0.16673570432189447,0.0924976283329665,0.11143082310111364,0.01579122275726418,0.024745509587404086,0.019457470712589516,0.05476619591954638,0.02010736893166858,0.15226708768171557,0.14387248316189188,0.028162241791592907,0.11351869219752864,0.15353407906867986
0.1341093649043657,0.05845227901647931,0.17892973645151042,0.1661248981556454,0.0899765195200453,0.11389850452140919,0.01648320617875484,0.024938410525643252,0.019486261085569154,0.055343607642308,0.019914165612658866,0.1497344509967457,0.13915684515227658,0.02625942186944544,0.11270304831983324,0.14964576985350142
0.13761181861563945,0.05589859165147544,0.17558563583803757,0.16558230924005926,0.08750331592642722,0.11640645914323106,0.01719946067905707,0.02513711438040873,0.01955340503855592,0.055923568205478336,0.019750933293947975,0.14730605016868392,0.1345302763039111,0.024429608684655827,0.11189955221088058,0.14581116720879023
0.14113509599846177,0.05342176912725847,0.1722718458266599,0.16510340091866757,0.08508006655679706,0.11895531090327309,0.017940068658985786,0.025341497530355982,0.019659579107228,0.056504845693456714,0.01961655876176943,0.1449816040652841,0.12999457866281408,0.022671340101575146,0.11110946226763206,0.14203153705003393
0.14467724317277655,0.0510208475637997,0.16899097500296398,0.16468372333723347,0.08270877478107064,0.12154568788474611,0.018705089744900778,0.02555144057712121,0.019805493265902516,0.05708613021622351,0.01950996932219261,0.1427605808364494,0.1255513975599776,0.020983147898907806,0.11033387027039368,0.13830806041482283
0.1482361633588773,0.04869485363741494,0.16574553909440645,0.1643189085525958,0.0803913763874794,0.12417816943639334,0.01949455542567877,0.025766819209523426,0.0199918930847779,0.05766603082086061,0.019430140996260455,0.14064218675747092,0.1212021824961417,0.019363569626410733,0.10957368340892273,0.13464178150645637
0.15180956215023259,0.0464428134040436,0.16253800564708737,0.1640046469585719,0.07812971863173918,0.12685322437537364,0.020308470392468005,0.025987493211909674,0.020219559216937376,0.05824309599182141,0.019376103366516902,0.13862537021093446,0.1169481684743944,0.0178111579307507,0.10882964448457155,0.1310335585936567
0.15539490612170864,0.044263756885607054,0.159370822018823,0.16373664469442542,0.07592554100528968,0.12957115058012664,0.021146819537040205,0.0262132943607905,0.020489304120273544,0.05881584689315449,0.019346940942939213,0.13670884778753326,0.1127903884957748,0.01632448725601227,0.10810237554349655,0.1274840326684162
0.1589894195462643,0.04215671871074465,0.15624642730060498,0.16351056259555014,0.07378045863484495,0.13233204307440835,0.022009577184098114,0.026444016339562764,0.020801966018742905,0.05938281213856987,0.019341791024578163,0.13489114366496385,0.10872970727010356,0.014902157929057835,0.10739242388953636,0.12399363123844812
0.16259012387580674,0.04012073522158503,0.15316724945142546,0.16332193815285312,0.0716959510134135,0.1351358103023868,0.022896716571946592,0.02667941213789282,0.021158400208552374,0.05994256002530684,0.01935983814394427,0.1331706303503227,0.104766857329403,0.013542797740141112,0.10670030277052486,0.1205626057578412
0.1661939006760771,0.038154838555087736,0.15013568950032985,0.16316610540435222,0.06967336031972758,0.13798222383144332,0.02380821899897792,0.02691920109303292,0.02155946791413713,0.060493727062020185,0.019400305291440365,0.13154556523374225,0.10090246797930673,0.012245061220769068,0.1060265257235123,0.1171910828686188
0.16979755958559745,0.03625804827865839,0.1471540951162574,0.16303815579740172,0.06771389964364688,0.14087097429042214,0.024744082282681264,0.02716308149691092,0.022006022992427585,0.06103504171874364,0.01946244222383129,0.1300141205314836,0.09713708559949216,0.01100762690010531,0.10537163375716431,0.11387911357136057
0.1733979044801434,0.034429361204404645,0.14422472615899903,0.16293297529760392,0.0658186653817573,0.1438017210422396,0.02570432816390924,0.02741074392127983,0.022498898167772848,0.0615653424611942,0.01954551126063918,0.12857440457484168,0.09347118560887926,0.009829192885351798,0.10473621476358957,0.11062671584240737
0.1769917951667573,0.032667740024851656,0.14134971499826882,0.16284533995555123,0.06398864841037342,0.14677413263486314,0.02668900828692297,0.027661883452018362,0.02303889593028571,0.06208358929805795,0.01964877106635246,0.12722447288662525,0.08990517678584811,0.008708471158393486,0.10412091478085697,0.10743391017111259
0.18057620186472986,0.030972102290289495,0.1385310244233117,0.16277002851345065,0.06222474270760748,0.14978791615258225,0.02769820839674206,0.0279162103867245,0.023626789495636444,0.06258886826352986,0.019771461339088116,0.1259623280493028,0.08643939894602719,0.0076441810089970755,0.10352644096493509,0.10430074769098006
0.18414824976245137,0.029341313804018353,0.13577040753839856,0.16270193050197318,0.060527751775168004,0.15284283403656895,0.028732050420532368,0.028173458998635624,0.02426333306019152,0.06308038847285061,0.01991279598520863,0.12478590797521615,0.08307411521957273,0.006635042073143275,0.10295355636896757,0.10122733077712781
0.187705251075472,0.0277741910016777,0.13306937964969637,0.1626361434009716,0.05889839324989442,0.15593870743897625,0.02979069213964389,0.02843339403481331,0.02494927579936799,0.06355747161964859,0.02007196973998956,0.12369306280607245,0.07980950033018312,0.0056797684746056785,0.10240306686191973,0.09821382617460311
0.19124472227561112,0.026269511784860904,0.13042921407323846,0.16256805446651837,0.05733730211149174,0.15907540569567197,0.030874324213320755,0.028695814694706986,0.02568537556397242,0.06401953402359843,0.020248173367359283,0.12268152126366641,0.07664562635705409,0.004777067277545569,0.1018758007410977,0.09526047090283093
0.19476438451249511,0.024826029471999342,0.12785096093545625,0.16249340334697948,0.05584503288950237,0.16225282202653668,0.03198316438318865,0.028960555923209588,0.026472410982092374,0.06446606157838698,0.020440609882157963,0.12174885061335995,0.07358244746002435,0.0039256428366615664,0.10137258179763664,0.09236757134652673
0.19826214570201406,0.023442485633226186,0.12533547348290602,0.16240832232157545,0.054422061252608234,0.16547083607736943,0.03311744876779126,0.029227486945968523,0.027311191481502146,0.06489657818649085,0.02064850881797544,0.1208924253014182,0.07061978694529826,0.003124204305123819,0.10089419677514085,0.08953549608920364
0.20173606330065944,0.022117620607827147,0.12288342860496486,0.1623093518656939,0.053068785329738556,0.16872926438407362,0.03427742024641929,0.02949650706961605,0.028202564816268334,0.06531060849164351,0.020871137940261554,0.12010942657664762,0.06775733351935197,0.0023714727821363387,0.10044135831430302,0.08676466316890356
0.20518428740578154,0.02085018157496479,0.12049533789856023,0.162193430239377,0.05178552706826398,0.17202780025110284,0.035463314028386074,0.029767538861496527,0.02914742176741442,0.06570763606334529,0.021107811881805563,0.11939687929511524,0.06499465018735869,0.0016661868961353908,0.10001466459642551,0.0840555225344163
0.2086049845006186,0.019638928139591134,0.11817154950125718,0.16205785686370605,0.05057253388357032,0.17536594487881838,0.03667534060438032,0.030040518908456725,0.03014669778781166,0.06608706454240625,0.021357897277433435,0.11875170876651416,0.06233118975562223,0.0010071067660334487,0.09961456221855447,0.08140853455251756
0.21199624287697305,0.018482635480878494,0.11591224140254269,0.1619002303448057,0.04942998079976942,0.1787429403910565,0.03791366775897029,0.030315386428861946,0.031201371471969625,0.06644820096643828,0.021620814094237877,0.11817079936895052,0.059766308773806835,0.0003930163608734182,0.0992413293278386,0.07882414546218677
0.21535596297734316,0.01738009518745211,0.11371740737501863,0.16171836307577464,0.04835797322529975,0.18215773361891335,0.03917840747573669,0.030592070073364685,0.032312459847497,0.06679027366863145,0.021896032989261138,0.11765104795091891,0.05729927682149896,-0.0001772756483073978,0.09889509034879428,0.0763027606905136
0.21868175545235535,0.016330113970045072,0.11158684063359513,0.16151017534288586,0.04735655045167927,0.18560899252193658,0.040469614886662106,0.03087047329604972,0.03348101060150357,0.06711247251036596,0.022183068673846888,0.11718940977084749,0.054929280968700124,-0.0007049363851016245,0.0985758512776829,0.0738447169380402
0.22197090107735934,0.015331510496556816,0.10952012814476153,0.16127357273730228,0.04642568991095346,0.18909516066236146,0.04178729968072932,0.031150460040901985,0.034708091466927424,0.06741399265660783,0.02248146941761449,0.11678293503735729,0.052655425649564665,-0.0011911103989524867,0.09828353789743442,0.07145025490290939
0.22522040611705335,0.014383110636225438,0.10751666547522203,0.16100632533261042,0.04556531217878662,0.19261452105278826,0.0431314436219999,0.03143184581000531,0.03599477709576593,0.06769407460014927,0.022790802979370833,0.11642879450215038,0.0504767286724349,-0.0016369221757502807,0.09801802971713373,0.06911949916250094
0.22842712071934043,0.0134837414285303,0.10557568636062341,0.16070599947903233,0.04477528666575469,0.19616525592881595,0.044502018770744695,0.03171439904636017,0.03734213383352816,0.06795203902810447,0.02311063940115257,0.11612429300155565,0.0483921166249038,-0.0020434792461313327,0.09777918838987597,0.06685245577025041
0.23158787096268377,0.01263222410880573,0.10369629475467039,0.1603699862604028,0.04405543789914818,0.19974549946523112,0.04589900455303385,0.031997851490195905,0.03875120287735602,0.06818731525969376,0.023440533033759346,0.11586687032044843,0.046400426575387434,-0.002411875599106442,0.09756687977092016,0.06464903030052963
0.2346995849040328,0.011827367193480555,0.10187749309551074,0.15999560698725754,0.0434055522618705,0.2033533816730003,0.047322403012770804,0.03228191191463264,0.040222982345910235,0.06839946216839264,0.023780010915970592,0.11565408924151568,0.04450041830399608,-0.0027431949059591224,0.09738098897046052,0.06250905623365668
0.23775940786564548,0.011067962432363293,0.10011820476080383,0.1595802414276201,0.04282538502404135,0.20698706198437833,0.048772251609033666,0.03256627956237097,0.041758410569282825,0.06858818072966227,0.024128574934262927,0.11548361112238542,0.0426907933744912,-0.003038512534783775,0.09722142796686829,0.06043232311408564
0.2407648023363976,0.01035278662188003,0.09841728931632651,0.15912144692247188,0.04231466747634125,0.21064475132604107,0.050248632973667884,0.032850656304264966,0.04335835640242472,0.0687533176015696,0.024485716663835352,0.11535315979365887,0.04097021516938054,-0.0032988954325050743,0.09708813557111765,0.05841860114051119
0.2437136281788825,0.009680608815506444,0.09677354953057485,0.158617059684564,0.04187311395143425,0.21432472178454146,0.05175168111809457,0.03313475725552199,0.045023620346964964,0.06889485944176738,0.024850937234617728,0.11526047497582592,0.039337327286062186,-0.0035254003054514954,0.09698106976510548,0.05646766192957055
0.2466041993242829,0.009050199575907723,0.09518572954784232,0.15806527476424473,0.04150042850066968,0.21802530327517852,0.05328158367210442,0.033418319626895475,0.04675494257817108,0.06901291798091425,0.02522376662938689,0.11520325675893411,0.03779076942488374,-0.003719071562953777,0.09690019266926217,0.05457929529919833
0.24943531379203618,0.00846033976210743,0.09365250406508945,0.1574647020546814,0.04119631097776237,0.22174486692733694,0.05483857984787075,0.033701109627304576,0.04855301169048058,0.06910770619881128,0.025603780549481602,0.11517910390919865,0.03632919002503646,-0.0038809400508779865,0.09684544862168129,0.05275332201689438
0.2522062546731033,0.007909828131927088,0.09217245882257422,0.15681439669009894,0.0409604622698554,0.22548179519166703,0.056422953945634506,0.03398292726951688,0.05041847164844324,0.06917950627360597,0.02599061407422803,0.11518545897649365,0.03495125506191068,-0.004012022809263326,0.09681673606553325,0.05098960255024445
0.2549167606397834,0.007397487611642518,0.09074406377461379,0.15611386321915455,0.040792588410073834,0.2292344389542777,0.05803502434918426,0.03426360896138743,0.052351926629324565,0.0692286302839132,0.026383971449088644,0.11521958840986642,0.033655652602062984,-0.004113323802503125,0.09681387413758184,0.04928804194053108
0.25756696556134034,0.00692217012466022,0.0893656471431006,0.15536303396520876,0.04069240330499297,0.23300106220914338,0.05967512809484657,0.034543027792108445,0.054353943680045265,0.06925537492602185,0.02678363147746561,0.11527861320920225,0.032441092910752055,-0.00418583527049812,0.09683656554139299,0.04764859099420163
0.2601573078784493,0.0064827599107705955,0.08803538889520537,0.15456222297139097,0.04065962981618454,0.23677977509243303,0.06134360123246963,0.034821091447300015,0.05642505322168856,0.06925997571324924,0.027189448156972534,0.11535957077848322,0.0313063041135212,-0.004230538641060046,0.09688436336678743,0.04607124405078056
0.26268841148169303,0.006078175306437567,0.08675134503941746,0.15371205782993336,0.0406939989488026,0.24056845632303026,0.06304075532606045,0.03509773771053486,0.05856574753871747,0.06924257697169116,0.027601346386421047,0.1154594812288419,0.030250023618818133,-0.0042484038060828224,0.09695665875902043,0.04455603363939738
0.2651609409085826,0.00570736899404293,0.08551149208241328,0.15281339247658476,0.040795246923817405,0.24436466855561612,0.06476685056091352,0.03537292753447851,0.06077647748118579,0.06920323522471179,0.028019312767172153,0.11557540818475408,0.029270985704058155,-0.0042403867132141905,0.09705269883230074,0.043103022379590655
0.26757543467848627,0.005369326763588327,0.08431377511981371,0.15186720466311834,0.04096310994485362,0.24816558490334825,0.06652206746851529,0.03564663569493577,0.06305764768082872,0.06914195375086739,0.028443381723485227,0.1157045123839931,0.028367905844283937,-0.004207426257311605,0.09717162315375442,0.0417122925157025
0.26993214164454044,0.005063064863732918,0.08315615255537523,0.15087448228293815,0.04119731651586666,0.25196796327114296,0.0683064846532044,0.03591883907828627,0.06540961063151335,0.06905872959276325,0.028873617362283825,0.11584409660183612,0.027539465258818643,-0.004150441309675355,0.09731250251254527,0.0403839334983803
0.272230931026773,0.004787626049920793,0.08203663532735683,0.14983610968890101,0.041497577222605934,0.25576818687719793,0.07012007332135461,0.03618950269907288,0.0678326600080424,0.06895359883201949,0.029310091674578983,0.11599164069850053,0.026784304818277562,-0.004070328243132715,0.09747437377589836,0.03911802804197512
0.274471335713481,0.004542074465480147,0.08095331871403758,0.148752786644767,0.0418635719593215,0.25956234640975084,0.07196271112140509,0.0364585636010781,0.07032702359283112,0.0688266756159635,0.02975286122949064,0.11614482587610434,0.02610103473560742,-0.003967959145082162,0.09765626959538712,0.03791463709346953
0.2766526998712212,0.004325489516704698,0.07990440507986345,0.14762502054706425,0.04229493466166123,0.2633463314766622,0.07383420631020052,0.03672591433280168,0.07289285614717775,0.0686781834822308,0.030201949446634516,0.11630154752873526,0.025488254840283196,-0.003844180874925897,0.09785724186798155,0.03677378414734057
0.2787743579606639,0.004136958924754802,0.07888821629729663,0.14645319317272082,0.042791237895155175,0.2671159193607309,0.07573432319258855,0.03699139189854667,0.07553023250424341,0.06850847780405091,0.030657344153658995,0.11645991636866493,0.02494457646037991,-0.0036998150783516624,0.09807637803499088,0.03569544090677348
0.28083580489020654,0.003975572078123076,0.07790319502073294,0.14523765976489297,0.043351984683489296,0.2708668584906747,0.077662805727411,0.03725477911543803,0.07823914107752016,0.06831805850580074,0.03111901206515468,0.1166182478067343,0.024468642022087247,-0.0035356592212039194,0.09831280951378057,0.03467951990757048
0.2828368463716811,0.0038404168088107082,0.07694789447791717,0.1439788436247368,0.043976614026192025,0.27459494394455985,0.07961939856544092,0.03751581833115553,0.08101947787588719,0.06810757256302645,0.03158692155164725,0.11677503985014318,0.02405914144231762,-0.0033524886530518555,0.09856571179643578,0.03372587891365441
0.28477772390638173,0.0037305820404649258,0.07602095695856344,0.1426773147318378,0.04466451749704006,0.27829608226264935,0.08160386484584703,0.03777423103649796,0.0838710410000987,0.06787780618905609,0.03206106533760991,0.11692894005210502,0.023714824622985513,-0.0031510596579666234,0.09883429600977026,0.0328343345246333
0.28665920962943464,0.0036451647783350342,0.07512108169524852,0.14133385049201544,0.04541505990230336,0.2819663428731663,0.08361600015479671,0.03802973815735391,0.08679352547260383,0.06762966700573488,0.03254148016575264,0.11707870230176667,0.023434509518118606,-0.0029321133248777186,0.09911779200475702,0.03200467841370396
0.28848266724024163,0.0035832782345528967,0.0742469833235348,0.13994947745555256,0.04622760024010969,0.2856019935403808,0.08565564213987172,0.03828207924782049,0.0897865181304702,0.0673641568825118,0.03302826261309558,0.11722313447687557,0.02321708543407957,-0.0026963792868049067,0.09941542332240821,0.03123669240690686
0.2902500764143457,0.003544059503926598,0.07339734255291992,0.1385254935983966,0.04710151189960028,0.28919951744179406,0.08772267537388911,0.038531029859822076,0.09284949219768002,0.06708233649005768,0.033521580397219454,0.117361038193762,0.02306151143053177,-0.002444577224152002,0.09972637465867665,0.030530161555950498
0.2919640193869452,0.0035266764279270908,0.07257075872680813,0.1370634714838233,0.048036201380721184,0.29275560977974485,0.08981703116830939,0.03877641635301035,0.0959818010561115,0.06678528293641652,0.034021678691803094,0.11749114207712791,0.022966809905994517,-0.0021774148673552943,0.10004975271412082,0.029884885022849084
0.2936276297723356,0.0035303334538000714,0.07176572952869906,0.13556524329577213,0.04903112479732982,0.29626715223892136,0.09193868214661936,0.03901812742996423,0.09918267066168943,0.06647404222221494,0.034528881171034795,0.11761203740537096,0.022932055666929636,-0.0018955837247131987,0.10038454398950589,0.029300684648126688
0.29524450508436895,0.003554276318169482,0.07098067498227238,0.13403286933430836,0.05008580143716742,0.29973116411708406,0.09408763149911409,0.039256121739331705,0.10245119001024436,0.06614958526580103,0.03504358571372793,0.11772214194028488,0.02295636098317283,-0.0015997543940634812,0.1007295823071861,0.028777411129924588
0.2968185857960511,0.003597795412242465,0.07021399046597662,0.1324685920698096,0.05119982369462807,0.3031447295783419,0.09626389694998204,0.03949043098512582,0.10578629905226147,0.06581278917893636,0.03556625491061258,0.11781971483174102,0.023038857315394717,-0.0012905722220312842,0.10108354476572239,0.028314947797638313
0.2983540050655674,0.003660227718279841,0.06946410374009929,0.13087477825232502,0.05237286276722525,0.3065049011970188,0.09846748957362657,0.03972115811316904,0.10918677349126833,0.06546445731347085,0.03609740172306006,0.11790291304680807,0.023178674566966446,-0.0009686535176214771,0.10144498059292952,0.027913212019333083
0.29985491440562606,0.0037409572436531797,0.06872952564462492,0.12925385185732813,0.05360466961368355,0.30980858075954926,0.10069838769836434,0.0399484703124454,0.11265120635237709,0.06510536345553494,0.03663757082969949,0.11796986186910313,0.02337492164072057,-0.0006345825039854944,0.10181235738359234,0.0275721543358768
0.3013252915315408,0.003839413918634629,0.06800889224274967,0.12760822081434112,0.05489507080825247,0.3130523791493847,0.10295650623121097,0.04017258676409486,0.11617798971329836,0.06473629835762358,0.03718731636120498,0.11801872347774695,0.023626677495319416,-0.00028890916153947793,0.10218410884334604,0.02729175546524013
0.30276875980144446,0.003955070965943121,0.06730099670110333,0.1259402005122392,0.05624395908789518,0.31623247847635205,0.10524166182707624,0.040393761285887335,0.11976530554816202,0.06435811025061311,0.03774717685644101,0.11804775944759076,0.02393299831540986,6.785192104247797e-05,0.10255867832044824,0.027072021366471584
0.30418849550572535,0.0040874407927732545,0.06660480964293322,0.12425194520421726,0.05765127857080249,0.31934456403807615,0.10755353491230146,0.04061226024527557,0.12341113212094847,0.06397173791002395,0.03831765099343754,0.11805538546043724,0.02429293433033548,0.000435221612244185,0.10293455651370252,0.026912976593178494
0.30558727757747056,0.004236069498234732,0.06591948721454245,0.1225454147793272,0.0591170048193088,0.3223838793268402,0.10989163531570792,0.0408283363381673,0.12711326238117002,0.0635782351617243,0.03889918355126582,0.11804021667695534,0.02470554676543211,0.0008127551868066479,0.1033103118953854,0.026814656199678336
0.3069676350006517,0.004400530129412208,0.06524436664427649,0.12082239502477903,0.06064112011947648,0.325345372651747,0.11225528725733909,0.04104220219757432,0.13086932766032092,0.06317878606460889,0.039492169384060055,0.11800110242774962,0.0251699212293281,0.0012000401690022105,0.10368461259269257,0.026777096488335896
0.3083320106214293,0.004580414856223176,0.06457894962168441,0.11908455268112791,0.062223584544375654,0.328223870227681,0.11464364306108642,0.04125401529423957,0.13467682379131976,0.0627747103860536,0.040096971173211746,0.11793714913740865,0.02568517686868068,0.0015966931221975175,0.10405623872468407,0.026800324903420762
0.30968290339266646,0.004775326267661724,0.06392287435601372,0.11733349460300442,0.06386430354951905,0.3310142445057034,0.11705571566588106,0.041463884415604405,0.13853313862429142,0.062367459373601476,0.040713940710803136,0.11784773069342651,0.026250470814071263,0.0020023554751409595,0.10442408448677597,0.026884349384716354
0.31102298099292824,0.00498486908991276,0.06327587766258079,0.1155708177091735,0.06556309686466524,0.3337115693251272,0.11949041552891129,0.041671893818284254,0.14243557966053502,0.06195860220674997,0.04134343800127698,0.11773248580622404,0.0268649976570655,0.002416688508904862,0.10478714960252727,0.027029147492574648
0.3123551589873414,0.005208645898439655,0.06263774884957304,0.11379814776231278,0.06731968157518736,0.3363112554399522,0.12194658657128715,0.04187813305813421,0.14638140030641025,0.06154980386984991,0.04198584672967392,0.1175913022680186,0.027527983928630578,0.0028393676558754245,0.10514452011236786,0.027234656462642854
0.3136826441574775,0.005446259502870441,0.062008277516598216,0.11201716650958404,0.06913367883307875,0.3388091602480293,0.12442304022428353,0.04208272520873992,0.15036782307590146,0.06114279550617528,0.04264158553808317,0.11742428839634275,0.02823867778238179,0.0032700762827256834,0.1054953388294274,0.02750076725826126
0.3150089412031625,0.005697320102820763,0.06138720344219699,0.1102296271543971,0.07100463704042254,0.3412016661067954,0.12691858659992633,0.04228585125598347,0.15439205795960004,0.0607393385814044,0.04331111471631985,0.11723173233070167,0.028996334311554944,0.003708499713135187,0.10583876615131056,0.027827325089579753
0.3163378236405105,0.0059614535697316935,0.06077418953213246,0.10843735854123313,0.07293205825167799,0.34348572245462666,0.1294320617885311,0.042487769588331975,0.1584513141421467,0.060341184391974285,0.04399493808733739,0.11701405022469182,0.029800197135605503,0.004154321522001252,0.10617393226069789,0.028214134745476006
0.31767327131337725,0.006238309159468968,0.060168834263878486,0.10664225880593134,0.07491542164118911,0.34565884805683345,0.13196235028168957,0.042688829684865585,0.1625428033009642,0.0599500334083052,0.044693600045714856,0.11677172472652829,0.030649479376838203,0.004607223766609862,0.1064998820645344,0.028660966986203983
0.3190193784246583,0.006527566294648313,0.059570713168505394,0.1048462795633492,0.07695420259033509,0.3477190910312201,0.13450840153639032,0.04288947933054963,0.16666373286390287,0.05956750727550351,0.045407677882180676,0.11650523545454397,0.031543352438176714,0.005066890226954902,0.10681552212366296,0.02916756392227757
0.32038023730612764,0.006828940210269906,0.05897942641866182,0.10305140196583187,0.07904788648223686,0.349664945837249,0.13706923973886936,0.04309026495019521,0.1708112878453428,0.05919514826788238,0.046137769692477425,0.11621498400589578,0.03248094968235598,0.005533010455130207,0.10711959496846302,0.029733642979356947
0.321759804213783,0.007142186287691243,0.05839464024813884,0.10125960616381091,0.08119597646499116,0.3514952280781409,0.13964396589974634,0.043291824936369634,0.1749826002179881,0.058834445428885065,0.04688447831958971,0.11590122705598405,0.033461381733562626,0.006005283440282898,0.10741069975967803,0.03035889943953235
0.3231617542041025,0.007467102938208619,0.057816119266038676,0.0994728358304127,0.0833979946502778,0.3532089096977155,0.1422317515188498,0.04349487613852299,0.17917470520452355,0.05848687154056727,0.04764839190993961,0.1155640496393252,0.034483754783467276,0.006483420623392586,0.10768734597663465,0.0310430076050647
0.3245893401399182,0.007803532937288425,0.057243748657716496,0.09769295947572602,0.08565347644497531,0.35480491887674126,0.14483182320162977,0.043700193966737515,0.1833844843772066,0.05815391796336838,0.0484300617728939,0.11520339734279747,0.035547186920747695,0.006967148188209155,0.10794801486235632,0.03178562068397138
0.32604529289194495,0.008151363152589016,0.056677545751672026,0.09592173044331315,0.0879619579605538,0.3562819189960474,0.1474434377905532,0.04390858683013076,0.18760859762466064,0.057837123344653636,0.0492299798524212,0.11481914492825836,0.03665082094840568,0.007456208588668097,0.10819121699705357,0.032586369545532276
0.3275318025560553,0.008510522652114091,0.05611766092981889,0.09416075249934233,0.0903229566996085,0.3576381247994779,0.15006584779418855,0.04412086586454536,0.19184341975140673,0.057538095386789535,0.05004856265574805,0.11441116946084727,0.03779383286674866,0.007950361307314038,0.10841554330394089,0.03344486053556651
0.3290505731532757,0.008880979221833212,0.05556436834340213,0.09241146657410343,0.09273594597151051,0.3588712568321496,0.15269825715169438,0.04433781295783738,0.19608501690837124,0.05725852516356486,0.05088614960164774,0.11397941611983103,0.03897543537678584,0.008449382871929315,0.10861970768997228,0.03436067257400274
0.3306028994052358,0.009262734363672013,0.05501804734471129,0.0906751668476209,0.09520032373039365,0.3599786734795828,0.1553397676565756,0.04456015667978498,0.2003291838578887,0.057000193779549485,0.05174301553414914,0.11352395489817801,0.04019487596526966,0.008953066186943649,0.10880257977883238,0.035333353778857525
0.33218972497479743,0.00965581688390996,0.05447915593439917,0.08895303345375083,0.09771537675008934,0.36095760366857715,0.15798931667387303,0.04478856917539042,0.2045715220497081,0.05676497146778249,0.05261938919406093,0.11304502670903953,0.04145142935975419,0.009461219260671266,0.10896320650537274,0.03636241786962187
0.3338116704097171,0.01006027521788982,0.053948197838019664,0.08724616497555587,0.10028024529681263,0.36180538880799623,0.16064561537587163,0.04502368604342369,0.20880752827942328,0.05655480950565874,0.05351547089296859,0.11254307777658518,0.04274438438017007,0.009973663427573382,0.1091008216994627,0.03744734059808991
0.3354690298668201,0.010476168668781176,0.05342568505033591,0.08555560484539168,0.1028939023566205,0.3625196993833349,0.16330711531541744,0.04526613727783176,0.21303268143880996,0.0563717255866356,0.05443144720628982,0.11201878158069527,0.044073025452653514,0.010490231175477194,0.10921484318036517,0.03858755643522187
0.33716173747026146,0.01090355776532228,0.05291209859661173,0.0838823611667896,0.10555515853624627,0.3630987173254875,0.1659720267871274,0.045516577846455436,0.21724252353131746,0.056217783507234775,0.055367502093442954,0.11147304803431929,0.045436609281943256,0.011010763690298306,0.10930485729637028,0.03978245570865738
0.33888930590810407,0.011342494936831106,0.05240785580984112,0.08222741972858749,0.10826268599401982,0.3635412765002401,0.16863837795566852,0.04577571396677573,0.22143273105576408,0.0560950682079011,0.056323823972174065,0.11090701998308795,0.04683434034056701,0.011535108225078493,0.10937059126426756,0.0410313823376772
0.3406507456037625,0.01179301893887936,0.05191329888085714,0.0805917502274451,0.11101504692912556,0.3638469552622141,0.17130408778847736,0.046044324117954734,0.22559917295751378,0.056005657338165156,0.05730060840780959,0.11032205751353849,0.048265355924635975,0.012063115386330883,0.10941187407453272,0.042333632252319675
0.3424444930454237,0.012255156005516058,0.05142871022759999,0.07897630594595509,0.11381071908260196,0.3640161169179628,0.1739670387318058,0.04632327404127313,0.22973795161539534,0.055951590598555916,0.05829805622252828,0.10971971092446346,0.04972873071108669,0.012594636409566564,0.1094285871158374,0.043688452513282634
0.3442683945666801,0.0127289263690127,0.05095434159821156,0.07738201734346868,0.11664811615045693,0.36404989606283283,0.17662514527148365,0.04661352521633595,0.23384542377226705,0.05593484050117233,0.05931636698040892,0.10910168354240722,0.05122349780568551,0.013129520468779113,0.10942060602261307,0.04509504107208416
0.3461197629043253,0.013214352487498846,0.05049044162494988,0.075809780200122,0.11952560184448832,0.363950130996381,0.1792764158074767,0.04691613654748153,0.2379181989167107,0.055957293975610535,0.060355727956779084,0.10846978583648546,0.05274867566659634,0.0136676120333934,0.10938773554949112,0.04655254703030593
0.3479954725080199,0.0137114668940465,0.05003727658625047,0.0742604391076383,0.12244149650547143,0.3637192446745104,0.18191900529629212,0.04723225924323025,0.24195311336404243,0.0560207535292149,0.06141629885082179,0.10782588250155714,0.05430329433273478,0.014208748252918825,0.10932964788103068,0.0480600711767908
0.3498920525156378,0.014220319130043929,0.04959514387240565,0.07273476722074644,0.12539407538589994,0.3633600788138277,0.1845512562349363,0.04756312511157642,0.24594717914035,0.05612695454127521,0.06249819264381671,0.10717183432740507,0.05588641885278479,0.014752756316693939,0.10924585239321831,0.04961666650693544
0.35180575982055506,0.014740981534031155,0.049164378030811424,0.07123344335326177,0.12838155797065393,0.36287568771946266,0.18717172577769367,0.047910028716750465,0.2498975077107242,0.05627758711557535,0.06360145313745134,0.10650943675291709,0.05749716876494028,0.015299450706201758,0.10913571750392642,0.0512213383633928
0.3537326257469008,0.015273553678940474,0.048745349634502215,0.06975703118341747,0.13140208798796701,0.3622691000655446,0.18977919709173985,0.048274304041433874,0.2538012095743372,0.05647431484104331,0.06472603214712666,0.1058403618698569,0.05913473259388503,0.015848630233030896,0.1089985292563132,0.05287304378724064
0.3556684711512279,0.015818165277856247,0.04833845755528321,0.06830597199682831,0.13445370407300467,0.36154307161396315,0.1923726734644715,0.048657296466604896,0.2576552717333676,0.05671878844017572,0.06587177505948989,0.10516612274410564,0.06079837648838603,0.016400074739063714,0.10883355792326885,0.054570689637292634
0.35760888639396965,0.016374977410869167,0.04794411551489031,0.06688059789271432,0.13753430137414765,0.3606999001868976,0.19495135416514658,0.04906033101527116,0.2614564233462121,0.05701265393290953,0.067038423102836,0.10448807819817336,0.06248744631489106,0.016953541328858478,0.10864011938005465,0.05631312902645638
0.35954917449196366,0.016944181963122792,0.04756273402211092,0.06548115756624909,0.14064158704342533,0.3597413997427652,0.19751459162283533,0.0494846813634314,0.26520102919381827,0.0573575551676534,0.0682256300599266,0.10380747203883987,0.06420136274343297,0.017508760284214872,0.10841762840079461,0.05809915564091372
0.361484257779925,0.01752599920644774,0.04719469897220977,0.06410784315424758,0.14377304266277613,0.3586690474235691,0.20006183009484665,0.049931552076131994,0.26888507148874125,0.05775513079704622,0.06943298426385171,0.10312548396867363,0.06593960910471208,0.018065431796125575,0.10816564225565602,0.05992749555245123
0.36340856340152433,0.018120673503622262,0.046840348462475034,0.06276081379436742,0.14692591530849278,0.3574842119877801,0.20259252664417232,0.05040208481412868,0.27250423736493334,0.05820700599645872,0.07066002989395517,0.10244327704729071,0.06770171205344269,0.018623225343049846,0.10788389331603263,0.061796796207208696
0.36531594251707816,0.01872846716460563,0.046499952375780654,0.06144021519498058,0.150097245645032,0.3561883763648794,0.20510605589804104,0.050897383623813616,0.2760540646411164,0.058714779431424696,0.07190628574049157,0.1017620378347094,0.06948721533449631,0.019181782371570037,0.10757230974695335,0.06370561237475598
0.36719969132199665,0.019349652537144366,0.04617370387857914,0.0601461946540516,0.15328391844393205,0.3547833251204281,0.20760160314998466,0.05141854606818601,0.279530095196783,0.05928000616924427,0.07317126063114204,0.10108300855007799,0.07129564720642405,0.01974072120822288,0.10723102376563264,0.06565239137727966
