EMG01_right_gast_med,EMG02_right_glut_max,EMG03_left_gast_med,EMG04_left_glut_max,EMG05_right_glut_med,EMG06_right_bic_fem,EMG07_right_rect_fem,EMG08_right_vast_lat,EMG09_right_vast_med,EMG10_right_tens_fasc_lat,EMG11_left_glut_med,EMG12_left_bic_fem,EMG13_left_rect_fem,EMG14_left_vast_lat,EMG15_left_vast_med,EMG16_left_tens_fasc_lat
-0.1455002190098239,0.05350450429011346,0.10852077750075738,0.047374600539552995,-0.0023687391330594067,-0.006932659649342837,-0.00198488188801123,0.009214591449367425,-0.01656336334845144,0.03770921375728424,-0.021498158340905706,0.06335096815804424,0.014456473789088424,0.026404257537532245,0.057432183037008235,0.004178188263736987
-0.13097342644643253,0.05360675451845335,0.10987795523951031,0.04672795724648128,0.0006582230706878979,-0.005682049252230001,-0.00023190155487118428,0.010655438688066482,-0.014380119490002391,0.03830650061738343,-0.02041415440132462,0.06731584183546231,0.014781977110959734,0.026409130590304763,0.056999519707608096,0.005068219191584402
-0.1165859096118731,0.053717811088723644,0.11124041347096654,0.046094397902846564,0.0036619405134426073,-0.004436487382698846,0.001521031185460504,0.012067746451116416,-0.012201875308102527,0.03892806676677852,-0.019341293101562806,0.07129967350558736,0.015109813046585227,0.02642134627223875,0.05659038539720524,0.005952516175972722
-0.10236141349336171,0.053837942575657806,0.11260512843796482,0.0454752903152693,0.006637847192794532,-0.0031978507633814257,0.003272023289113474,0.013448307459494846,-0.010031445717100693,0.03957399589442984,-0.018281453436254796,0.07529450196838246,0.015439958448199101,0.02644146978467553,0.05620634701510461,0.006829699091130628
-0.08832239650664246,0.053967332673505425,0.11396909942382712,0.04487193734976759,0.009581707271957013,-0.001967898267892099,0.005019205177716725,0.01479421202488504,-0.007871489271512168,0.04024434315870377,-0.017236358483134373,0.07929343834139446,0.015772376224697078,0.026470067605541266,0.05584894781829864,0.007698483377046581
-0.07448966531029542,0.054106067422529186,0.11532939264954466,0.04428556397833077,0.012489687525817155,-0.0007482346451275834,0.006760746545436538,0.01610291299113928,-0.00572446743456193,0.04093914720042416,-0.01620753726171152,0.08329092052447191,0.016107020649265988,0.02650769327242082,0.055519697465019294,0.008557704695485092
-0.0608821186399732,0.05425413147144059,0.1166831548941447,0.04371731686989401,0.015358402714551711,0.0004597125487265506,0.008494874812971918,0.0173722644928558,-0.003592617457130483,0.04165843201389695,-0.015196300634335838,0.08728279704623165,0.01644385209194762,0.02655487124846501,0.055220062868071476,0.009406335571213035
-0.04751660137377443,0.05441141033151095,0.11802759803461813,0.04316826996463402,0.018184938566660022,0.0016547026361538495,0.010219893617383378,0.018600537585220716,-0.001477937520523807,0.04240219845620577,-0.014203730457944144,0.09126626995713834,0.016782852201948754,0.026612088911431565,0.05495146039580648,0.0102434941112689
-0.03440786049190244,0.05457769443734612,0.11935995658114087,0.0426394285503156,0.020966856268307237,0.002835679451671084,0.011934198880304694,0.019786415528206244,0.0006178171394687435,0.04317040921832593,-0.01323068058412363,0.09523972536291204,0.01712403647959774,0.02667980315808605,0.05471524966721488,0.01106844495858144
-0.021568592556864944,0.054752683237390465,0.12067742155958994,0.04213172934067988,0.023702182117676773,0.004001758625326933,0.013636290171428062,0.020928971720679316,0.0026931285746264405,0.04396297109698967,-0.012277788087524607,0.09920248195688076,0.01746746401899937,0.02675845626245039,0.05451272887999747,0.011880592850013642
-0.009009570468222643,0.05493598978991305,0.12197706621494349,0.041646037228417455,0.026389385721047747,0.005152206521477646,0.015324775412300304,0.02202763348062323,0.004746702505090843,0.04477971905593708,-0.01134549291103369,0.10315448861125961,0.017813244203236208,0.026848491860141783,0.05434513135531507,0.01267946938516349
0.0032601628399400616,0.05512714664818704,0.12325580429991576,0.041183141192665584,0.029027349374235088,0.006286412858191295,0.01699836752767873,0.023082134703323275,0.006777448209158283,0.04562040639147946,-0.01043406417071444,0.10709601438138716,0.018161540122315155,0.02695036710331605,0.054213622824796685,0.013464713775638845
0.015233046561444941,0.05532561349215438,0.12451041616452464,0.040743753928802834,0.031615330716965144,0.007403859039820987,0.01865587227074168,0.024092460369293755,0.008784453327782252,0.0464847010819723,-0.009543631366740963,0.11102741871191518,0.01851256853810152,0.027064560255744816,0.0541192988911867,0.014236048529020846
0.026902713446888958,0.055530786664719035,0.1257376291734962,0.04032851800091353,0.0341529203321306,0.008504084203061316,0.020296167097767454,0.025058785857901725,0.01076695494129702,0.047372185071200286,-0.008674218731745476,0.11494909761565877,0.018866596325373363,0.027191573469895855,0.05406318206943192,0.014993251200840305
0.03826367366433485,0.05574201043210837,0.126934212889477,0.03993801639896713,0.03663999544957256,0.009586653708952782,0.0219181716647218,0.025981413834391058,0.0127243081368401,0.04828235761994982,-0.007825778824859866,0.11886159709306925,0.019223933429401673,0.02733193081534931,0.05404621787466423,0.015736124633562085
0.049310986569701794,0.05595858947782713,0.1280970651669577,0.03957278405065407,0.03907667049045886,0.010651140691222223,0.023520815394501418,0.02686071140673127,0.014655953133941017,0.04921464712058779,-0.006998215589797924,0.1227657808915703,0.019584922509400433,0.027486171902807006,0.0540692695470103,0.016464473114829875
0.06003997434403862,0.05617980189632366,0.12922328074466705,0.03923331887187081,0.041463244940128235,0.011697128156827677,0.025103017824682453,0.027697056322833043,0.016561381911073782,0.050168431480432735,-0.006191386765895863,0.1266629603182541,0.019949925581866635,0.027654841645070614,0.05413311117098847,0.01717809562682283
0.07044609102037121,0.05640491175420282,0.13031019729593135,0.03892009203538891,0.04380014886438788,0.0127242252485416,0.0266636959508307,0.028490811530630544,0.01844010610345636,0.051143063650996155,-0.005405087707472103,0.13055496160072694,0.020319308112355893,0.027838476843976213,0.054238420257657856,0.017876798940641356
0.08052500334515364,0.056633180149455675,0.13135541506684037,0.03863355722669903,0.046087886302420084,0.013732085656452158,0.028201793835855814,0.029242337540703617,0.020291631900428413,0.05213789922726593,-0.004639028739515053,0.1344441328978236,0.02069342258894757,0.02803759073484413,0.054385773641953974,0.01856042047071141
0.0902727919787428,0.05686387364653521,0.1323567876422191,0.038374158717391846,0.0483269777356151,0.014720422338117746,0.02971631876483216,0.029952025366802033,0.022115450635019695,0.05315232344722169,-0.0038928150492740627,0.13833329675753883,0.021072597584975192,0.028252659256193313,0.05457565032259238,0.019228850332983608
0.09968615472883505,0.0570962689919612,0.13331238298385087,0.0381423381275661,0.05051791098173682,0.015689017686507076,0.031206374002329194,0.030620328257019172,0.023911046737473844,0.05418577481576192,-0.0031659316219359536,0.14222565672801896,0.02145713868077494,0.028484116171114033,0.054808440087087525,0.019882048928335855
0.10876257035896111,0.05732965311797481,0.13422041560848108,0.03793853977438964,0.05266112138900206,0.016637729260098114,0.03267118460403194,0.031247785057582484,0.025677914309674376,0.05523776268251302,-0.002457733565086037,0.14612466892527975,0.021847340384610423,0.0287323604537104,0.05508445392865941,0.020520059358140177
0.11750041885383605,0.05756331762362399,0.13507915250245503,0.037763214510431964,0.05475701209596683,0.01756649137825417,0.034110114303216026,0.031835035199618694,0.02741557368305461,0.056307876423928434,-0.0017674419324021048,0.1500338904798727,0.022243502363048152,0.028997770809495803,0.05540393365110313,0.021143014227516098
0.12589905570151577,0.05779654717512165,0.1358868048182711,0.03761682194842831,0.056805998828424915,0.018475313022598843,0.03552267201066839,0.03238282568038489,0.029123585369835427,0.057395784390838735,-0.0010941449335889638,0.15395682620223897,0.02264594498489467,0.02928072068828454,0.05576705958490614,0.021751136656668692
0.13395883943065223,0.05802860157603285,0.13664144497415512,0.037499830957557115,0.058808558716206466,0.019364272575766846,0.03690850707816158,0.032892010752907444,0.0308015612915432,0.05850122144026464,-0.0004368042076071014,0.15789681938093644,0.02305502257214801,0.029581591332270594,0.05617395567014261,0.022344735590856916
0.14168111325180693,0.05825869160947568,0.13734100238803326,0.03741271830452176,0.06076527555804811,0.02023350997318298,0.0382673931412714,0.03336354532143388,0.03244917322414101,0.05962396463150376,0.00020573435036966672,0.16185703222739234,0.02347113381235627,0.029900782412620498,0.05662469126664712,0.022924195760508175
0.14906814314316583,0.058485953242034275,0.13798334689204403,0.037355965305919565,0.06267688003414092,0.0210832168459843,0.03959920103461974,0.03379847324977906,0.03406615844582525,0.06076379747871219,0.0008347258734897659,0.1658405056366845,0.02389472890657284,0.03023871990038011,0.057119279208279854,0.023489962880960637
0.15612301606972148,0.058709434401911884,0.13856641400789452,0.03733005236285466,0.06454428336696869,0.021913625202722737,0.04090386191805974,0.034197911919505664,0.03565232261385691,0.06192046737596616,0.001451508705483422,0.16985024150314587,0.024326313162398822,0.030595860906929114,0.05765766981373557,0.024042524884445256
0.1628495031980054,0.058928106891281445,0.13908832719529918,0.037335451268096995,0.06636860302413433,0.02272499514168538,0.04218132283981954,0.0345630344201948,0.03720753993062482,0.06309365273353751,0.002057484348667097,0.17388926551922845,0.024766446885590102,0.03097269531525189,0.05823974078729831,0.024582390134387934
0.16925189393556322,0.05914089875847709,0.13954749981948603,0.0373726152119743,0.06815117924008567,0.023517602011921643,0.04343150466416049,0.034895050714603394,0.03873175068572662,0.06428296218311781,0.002654096084863991,0.17796065991211996,0.0252157415695314,0.031369744107045204,0.05886528376679782,0.02511006395402674
0.17533480737278206,0.0593467336052419,0.13994271087024962,0.03744196646656876,0.0698935814015601,0.024291723357817582,0.04465428426533568,0.035195189004674034,0.04022495628065658,0.06548797000166051,0.0032428091672649937,0.1820675669846858,0.025674852523415982,0.03178755437339107,0.059533991826521075,0.025626027947168204
0.18110298822589666,0.059544569021982824,0.1402731498964391,0.03754388232136281,0.07159760368243305,0.025047625896764826,0.04584951369719318,0.03546467834207804,0.041687211856009085,0.06670826952133291,0.003825099602005374,0.18621316617722963,0.026144468211456485,0.03222669107975619,0.060245456288748625,0.02613073111155675
0.18656111160130073,0.059733431380159616,0.1405384283256024,0.037678682970892566,0.07326524970998377,0.02578555269800384,0.04701706190462509,0.03570473329442725,0.043118616648081726,0.0679435265102373,0.00440245650576906,0.19040062878866243,0.026625296691675085,0.03268772574050837,0.06099917719624149,0.026624597106758623
0.19171366108150442,0.05991244499042775,0.1407385562099494,0.03784662875982346,0.07489870647645423,0.026505711509923903,0.048156857926153374,0.03591654121419009,0.044519302203406094,0.06919352530346135,0.004976393783788261,0.19463305542896012,0.02711804963959876,0.03317122224428604,0.06179458257209023,0.027108040572709092
0.19656493759886787,0.06008085379389767,0.14087388535852147,0.038047930557521,0.0765003081550403,0.0272082672415062,0.04926892709837481,0.036101252381888875,0.04588941857772767,0.07045820479622499,0.005548463247304485,0.19891340169976077,0.027623424516362387,0.033677720158906084,0.06263104962649352,0.027581483361832845
0.20111917415088912,0.060238034027719524,0.14094502166285194,0.038282768629312625,0.07807249091411451,0.027893341510413935,0.05035341827274185,0.03625997302786917,0.04722911864233181,0.07173768193265251,0.006120265382806409,0.20324439754124807,0.028142087504006454,0.03420771788508737,0.06350792497689929,0.028045367454022176
0.20538068129152673,0.060383496685570276,0.14095271108854548,0.03855131377907963,0.07961774022400869,0.028561018247488783,0.05141062054174781,0.03639376099560098,0.04853854061797108,0.07303226098984728,0.006693457129607749,0.2076284708156614,0.028674664150783784,0.03476166269703067,0.06442454280875583,0.028500164235289765
0.20935397648032728,0.0605168790614824,0.14089770678504196,0.03885374833574032,0.08113853249543854,0.02921135179143968,0.05244096853043265,0.03650362360889722,0.049817788958042744,0.07434242772513894,0.00726975659283753,0.21206769762208785,0.02922174303554051,0.03533995414385166,0.06538023993958128,0.02894638003009954
0.21304388484757994,0.06063792519786493,0.1407806469571613,0.03919028628244003,0.0826372770356931,0.029844375266603367,0.05344503590874774,0.03659051715631272,0.051066913711181355,0.07566882827669949,0.007850944758508796,0.21656379704778433,0.02978388888177046,0.03594295863881403,0.06637436682424429,0.029384557972660038
0.21645560795340826,0.06074645562600263,0.14060200695143968,0.03956119177438257,0.08411627546565457,0.03046010879015896,0.05442351738825796,0.036655347314528,0.052285890732987485,0.07701223353413209,0.008438864397200246,0.2211181595053143,0.030361657865427747,0.03657102799271018,0.06740629365048821,0.02981527647153818
0.2195947583580499,0.060842327356484024,0.1403621604714045,0.0399667952657494,0.0855777176741068,0.03105856745773274,0.055377200051048035,0.036698969800494495,0.05347461019701218,0.0783734904773683,0.009035416438039148,0.22573188293718313,0.030955611541394028,0.03722451743557788,0.06847541081648979,0.030239144655113643
0.22246735914698895,0.06092538574279648,0.14006150538044174,0.04040750647306526,0.08702371223350855,0.0316397690018319,0.05630692538988965,0.0367221905670749,0.05463287994778632,0.07975346267460481,0.00964255416250891,0.23040580288298965,0.03156632861900603,0.03790380175147884,0.06958112325199177,0.03065679527633031
0.2250798089268625,0.06099541808140986,0.13970059184534064,0.04088382344524692,0.08845632990939717,0.032203740958265586,0.05721354389070881,0.03672576493276753,0.055760440914110095,0.08115296701135079,0.010262275607922809,0.2351405147598044,0.03219441425736894,0.03860928879876539,0.07072283823687195,0.031068875601475438
0.22743881417940484,0.06105213391295857,0.13928022869943193,0.04139633709157651,0.08987764333726973,0.03275052711775988,0.0580978684449978,0.03671039515402624,0.05685698710197796,0.0825727273141734,0.010896614585143426,0.23993638975796389,0.03284050664238479,0.03934142973226689,0.07189994658168625,0.03147603681079964
0.22955129217973147,0.06109518837554042,0.1388015633260089,0.041945730638550976,0.09128975760193563,0.03328019299011449,0.05896064361573742,0.036676726098033775,0.05792218611291333,0.08401336987193796,0.011547630707972783,0.2447935859004914,0.03350528069778546,0.04010072531775451,0.0731117972594273,0.031878922403715676
0.23142424889785088,0.06112423322549124,0.13826613181218203,0.04253277364301703,0.09269483052898472,0.0337928299730319,0.05980254778686584,0.036625339817949826,0.058955699153734054,0.08547546167111128,0.012217398807518478,0.24971205563095242,0.03418944886801883,0.04088772783306215,0.07435766588523819,0.03227815603607191
0.233064637354353,0.061138971264205665,0.1376758776979673,0.04315831037734609,0.0940950819768446,0.034288557902630565,0.060624224490738524,0.03655675252166466,0.05995719992603678,0.08695956667351336,0.012907998069247667,0.254691550817156,0.034893758988619114,0.0417030381832013,0.07563672325257965,0.032674329131682674
0.23447921019713186,0.06113920436202736,0.13703313926139093,0.04382324261553127,0.09549279193305484,0.034767525671561314,0.0614263236087174,0.03647141789362873,0.06092639170425041,0.08846629860053354,0.013621501188691904,0.2597316253542367,0.03561898932789547,0.04254729801618664,0.07694802147970146,0.03306798877073992
0.2356744074815471,0.06112487291001441,0.13634060685570923,0.04452850707797692,0.09689028774470439,0.035229909635567005,0.0622095385838905,0.036369736790823885,0.06186302184816727,0.089996362883435,0.014359964795027515,0.26483163471458543,0.036365940941833846,0.04342117680822988,0.0782905106345205,0.033459627877558476
0.2366563350723827,0.06109608495289633,0.13560125327251937,0.045275048026366886,0.09828992132452795,0.03567590958977537,0.06297463533809587,0.036252070232241404,0.06276689295845787,0.09155058582538865,0.015125424240214728,0.26999073093718395,0.037135427532654246,0.044325354086312045,0.0796630770553545,0.033849681569006286
0.23743084120517674,0.061053133764058916,0.13481824137524098,0.04606378598331514,0.09969403764523728,0.0361057421789298,0.06372247159232501,0.036118753314191586,0.06363786988062933,0.09312992969114645,0.01591989448831598,0.27520785079604426,0.03792826304204569,0.04526049716644752,0.0810645876606228,0.03423853125378447
0.23800363734131397,0.06099650318465286,0.13399481427174126,0.04689558860593725,0.10110493624096091,0.03651963170590199,0.06445400578568927,0.03597010904541322,0.06447588180199085,0.09473549316162085,0.016745374545252947,0.28048169435244863,0.03874524724475509,0.04622723563031574,0.08249393373019723,0.03462651332592537
0.23838041157339201,0.06092686063061179,0.1331341774257809,0.04777125826488148,0.10252482775500896,0.036917798413279974,0.06517029531356147,0.03580646141702881,0.06528091877341242,0.0963684973246484,0.017603851970813912,0.2858106908778538,0.039587149639051196,0.04722613846746406,0.08395007247301707,0.03501392876937049
0.23856691668788635,0.06084503824042869,0.1322394011630181,0.048691545292930356,0.1039557900509897,0.03730044442562678,0.06587248433318564,0.03562814702772374,0.06605302212641091,0.09803025808215748,0.01849730627897039,0.29119294930578266,0.04045469240386749,0.04825770579627606,0.08543206463846541,0.03540105253414007
0.23856902890826748,0.06075200316239263,0.1313133906985166,0.04965717755718407,0.10539973556089773,0.037667737647060905,0.0665617818884298,0.03543552462752304,0.06679226844653902,0.0997221465027451,0.019427711155392702,0.29662619096720944,0.04134853588997346,0.04932238117429477,0.0869391064330722,0.03578814263657061
0.23839277477715073,0.06064881843644063,0.13035893940382387,0.05066889235210318,0.10685840353564353,0.038019795710111055,0.06723943155991906,0.03522898202157151,0.06749874700260586,0.10144553920653719,0.020397035453213846,0.3021076737882591,0.04226927322703968,0.050420576276662445,0.08847055407628661,0.036175448872109266
0.23804432521484487,0.06053659629247656,0.12937882399024905,0.05172746510830218,0.10833337655564247,0.03835667627386017,0.06790667423126828,0.03500893988427888,0.06817253081036137,0.10320176131088078,0.021407242957950948,0.307634144790587,0.04321743695007435,0.051552696869739206,0.09002593947379982,0.03656322095513559
0.23752995743898497,0.06041644595028149,0.12837589489242077,0.05283373374532985,0.10982610565348466,0.03867837968989265,0.06856470585938118,0.0347758521684029,0.06881364181743348,0.10499202831116321,0.022460290945658525,0.3132018609939214,0.044193512717407166,0.052719165591389734,0.09160497570560495,0.03695171582521014
0.2368559870644123,0.06028942440565983,0.12735314552952892,0.053988617656288145,0.11133793068058287,0.03898486232588474,0.0692146376207163,0.03453020294623561,0.06942201606578748,0.10681740387555186,0.0235581275947081,0.3188066759076351,0.04519795403364831,0.05392044022015743,0.09320755131632584,0.03734120379221854
0.2360286742400095,0.060156511612896,0.12631375826654107,0.055193130518478274,0.11287009166539792,0.039276053920806825,0.069857476258969,0.034272499683516804,0.06999748592619717,0.10867879284506915,0.02470268835002865,0.324444156779383,0.046231195764765046,0.05515702624313566,0.09483371275074019,0.03773197314264459
0.23505410903717028,0.06001862528543622,0.12526112629513325,0.0564483863659973,0.11442373048598173,0.039551874749751706,0.0704941360578463,0.034003263113081154,0.07053979328662403,0.11057696811950612,0.025895891377404227,0.33010970641049425,0.04729366599293231,0.05642948273439359,0.0964836346872817,0.038124332802903865
0.23393809526591222,0.05987666283208206,0.12419885204379856,0.05775559862401305,0.11599988271088219,0.039812251411923884,0.07112547057650229,0.03372301403618277,0.0710486262299676,0.11251260999495445,0.027139632282179055,0.3357986776482825,0.0483857957774225,0.05773842082825628,0.09815757847236667,0.03851861265865402
0.23268608237028993,0.059731547850486226,0.12313072402014415,0.05911607207600561,0.11759946000129004,0.040057130794569976,0.07175230553382586,0.03343225752658035,0.07152366234880873,0.11448634026633257,0.02843577829887061,0.3415064716094505,0.04950802642237228,0.05908449440516995,0.09985583933059444,0.038915161164315
0.2313031886912006,0.05958427077618308,0.12206067510510735,0.060531188000392276,0.11922322398594272,0.0402864918212341,0.07237546514063192,0.03313146581459167,0.0719646099413331,0.11649874549533905,0.029786162183119677,0.34722861057937404,0.05066081390320742,0.06046838298761662,0.1015786834990965,0.03931433994522092
0.22979429756879122,0.059435921663662836,0.12099272619218934,0.0620023829587104,0.1208717553749037,0.04050035465238978,0.07299579048637111,0.032821064451326,0.07237124443417847,0.11855038835138228,0.0311925760526613,0.3529607771259223,0.051844630169959195,0.06189076725019848,0.10332628319540471,0.03971651519391462
0.22816417176149992,0.05928771425151226,0.1199309196475883,0.06353112193317559,0.12254542994905643,0.040698787067262064,0.0736141492369408,0.03250142935557554,0.07274343817884162,0.1206418065624161,0.032656765427442634,0.3586988122833143,0.0530599611256015,0.06335229795859415,0.1050986742026061,0.040122045787692705
0.2264175522535515,0.05914100082876028,0.11887924733463812,0.06511886668908515,0.124244416212304,0.04088190781603464,0.07423143634225272,0.03217289730914884,0.07308118197874505,0.12277349965899369,0.03418042370893508,0.3644386676596934,0.05430730116780662,0.06485356176168629,0.10689576242462276,0.04053126820013893
0.22455923139796985,0.05899727777530189,0.1178415805560214,0.06676704037264881,0.12596869660455415,0.041049886791576666,0.07484856590033735,0.03183578366213113,0.07338459701808966,0.12494590432771643,0.03576518731391033,0.3701763088985218,0.05558714427942339,0.06639505484857322,0.10871737609923601,0.04094447848243124
0.2225940967438444,0.058858181982751605,0.11682161839614308,0.06847699172239827,0.12771809950639976,0.04120294193031738,0.0754664547579501,0.03149040019493472,0.07365393626917366,0.12715935978011303,0.03741263163788808,0.37590757091958615,0.05689997175252124,0.06797717887089562,0.11056333707022596,0.04136191474706921
0.2205271435856492,0.05872547866324347,0.11582287438602018,0.07024996911016483,0.12949232997335094,0.041341332814717906,0.07608599882576035,0.031137070576333827,0.07388957493278468,0.12941406506252195,0.03912426796817773,0.3816279714275314,0.058246236729128445,0.06960026095009866,0.11243353157121452,0.0417837495804972
0.21836345607669178,0.05860104131537119,0.1148487008559677,0.07208711657825592,0.13129099443308437,0.04146535101704364,0.07670804343090243,0.03077614287062993,0.07409198999118409,0.13171003401434617,0.040901541396751485,0.38733252852911826,0.05962634583531026,0.07126458465740135,0.11432797415179631,0.042210098973032156
0.216108158558511,0.05848682483418952,0.11390232650929659,0.07398949177758607,0.13311361743700273,0.041575307297567546,0.0773333496541451,0.030407998681822257,0.07426172949494128,0.13404706295735525,0.04274582970089429,0.3930156895887749,0.06104063827105522,0.07297041954047312,0.11624686223573276,0.04264104249563566
0.21376634046141832,0.058384832923871935,0.11298688598166436,0.07595809342176979,0.1349596489327073,0.041671515850766595,0.07796256360228268,0.030033058673691018,0.07439937273043568,0.1364247270169523,0.04465844306758838,0.3986714379855655,0.06248936457124461,0.0747180445206024,0.1181906191194791,0.04307664587589628
0.21134295962230198,0.05829708109703935,0.11210543577090964,0.07799388791035111,0.1368284609829315,0.04175427588010183,0.07859620315054815,0.029651784364121705,0.07450548289081327,0.13884240278804366,0.0466406244399328,0.40429351441237305,0.06397267202365162,0.07650776356959822,0.12015992363988034,0.04351698232368215
0.20884273856380453,0.05822555662516807,0.11126095732414253,0.08009783181631673,0.1387193333767473,0.04182385087363432,0.07923466979942426,0.02926467625184579,0.07458055823923669,0.14129929952191414,0.0486935501657402,0.40987565354909383,0.06549060428078092,0.0783399124522487,0.12215572524377648,0.043962151683258045
0.20627009326951623,0.058172181389105126,0.11045634883515791,0.0822708893845993,0.14063142813464485,0.04188044879321729,0.07987827481066705,0.028872268486252954,0.0746249990150613,0.14379448484787127,0.05081833053608807,0.41541179288830704,0.06704311431362249,0.08021485577738707,0.12417924375533199,0.044412296526940065
0.20362913859280687,0.058138793010426786,0.10969440790742878,0.08451404429870388,0.14256375347236344,0.041924212316942676,0.08052726489210646,0.02847512042898243,0.07463910905999051,0.14632690016876596,0.05301600972213148,0.4208962398327954,0.06863008311424963,0.08213297411291785,0.12623195373107546,0.04486761438421298
0.2009237676709818,0.05812715527666753,0.10897780765317246,0.08682830509763909,0.14451512056598775,0.04195522619672903,0.08118184176436777,0.028073805573863547,0.07462313039121701,0.1488953640752321,0.05528756455936119,0.4263237850657809,0.07025133854337634,0.08409464145769809,0.1283155538877722,0.045328365416838476
0.19815775908075067,0.058138988754799274,0.10830906901873465,0.08921470376763091,0.14648410667998948,0.04197353714366131,0.08184217453729242,0.02766889838503259,0.07457729062944114,0.15149856273001203,0.05763390159721256,0.4316897528750205,0.07190667257082525,0.08610019389369163,0.130431922653875,0.045794875000345917
0.19533487395095706,0.058176005041049056,0.1076905341584079,0.09167428719581429,0.1484690470313558,0.04197917700589016,0.08250840419813309,0.027260959678572214,0.07450184751055586,0.15413502686037195,0.06005585183553819,0.4369899824258764,0.07359585626476953,0.0881498907327336,0.1325830614024167,0.04626753084959642
0.19245893051776167,0.05823993694437544,0.10712434986788753,0.09420810135903625,0.15046806390831244,0.041972184796159766,0.08318063992082719,0.026850521951007407,0.07439712544764109,0.15680309573455442,0.06255416261369443,0.4422207377200943,0.07531865190248525,0.09024387459313679,0.1347710273463155,0.04674677452417591
0.18953385292282132,0.05833256305938939,0.10661246746267072,0.09681716833148445,0.1524791174166184,0.041952626485632444,0.08385894732579789,0.026438078682050746,0.0742635428044883,0.15950087401648233,0.06512948620669107,0.44737854791528003,0.0770748216055239,0.09238214758205637,0.1369978583959907,0.04723308736110307
0.18656369263050676,0.05845572601880648,0.10615665366483532,0.09950245642929455,0.15450005932131322,0.04192061186999673,0.08454332923251813,0.026024082931926883,0.07410162903601945,0.1622262011463905,0.0677823663828182,0.45245998357570205,0.07886413194765962,0.09456457787813324,0.13926549248064532,0.047726971100352455
0.18355262245475482,0.05861134391758556,0.10575850090522651,0.10226484406499023,0.15652868261269492,0.04187630789222231,0.08523369983297861,0.025608955716240552,0.07391203136670756,0.16497665590070712,0.07051322848222388,0.45746137804669784,0.08068635404693353,0.09679092973753099,0.1415756921343062,0.04822892368541981
0.18050490473908595,0.05880141461826228,0.10541943025734153,0.10510507980404576,0.15856276440161232,0.04181994791433128,0.08592985578558232,0.025193098662893446,0.07369551118257589,0.16774959664560005,0.07332237955555136,0.4623785482964469,0.08254125873584514,0.09906089924421563,0.14393000259435865,0.048739410929109585
0.17742483663224262,0.05902801287491046,0.10514068564532651,0.10802374869617261,0.1606001000196015,0.041751836564193165,0.08663145481217796,0.024776905872045386,0.07345293077576047,0.1705422177326251,0.07621001899093885,0.4672066581963465,0.08442860650810562,0.10137414575534938,0.1463297646025209,0.04925883903799583
0.1743166765684563,0.05929328044613139,0.10492332297843811,0.1110212615088349,0.16263852655454966,0.04167234993706792,0.08733801481244784,0.024360773369524958,0.0731852314786607,0.1733516055788966,0.0791762549739707,0.4719403281763615,0.08634813206745456,0.10373031610664672,0.14877616640722205,0.0497875415360048
0.1711845569357616,0.059599409599106534,0.10476820583535844,0.11409787266376402,0.16467593446777307,0.04158193109859931,0.08804893444400537,0.023945105936734372,0.07289340453936134,0.1761747875336627,0.08222112303268607,0.47657391488771517,0.08829952345369409,0.10612906017990946,0.15127030450174134,0.05032579026026847
0.16803239841463388,0.05994862062996473,0.10467601849866762,0.11725371405970342,0.1667102663869963,0.04148108100854272,0.08876352315836615,0.02353032122019627,0.07257845631011077,0.17900876967535265,0.08534460494231766,0.48110181990459977,0.09028239589158173,0.10857003689348631,0.15381323835770055,0.05087382281262143
0.16486386357692975,0.0603431342329349,0.10464729402554131,0.12048883001390442,0.16873950262573317,0.04137034515470815,0.08948102987420804,0.023116851143788718,0.0722413694426401,0.18185056001612948,0.08854664662467024,0.485518762078406,0.0922962606961485,0.11105291016778565,0.15640603647006623,0.05143187307471683
0.16168237961071336,0.060785139734201694,0.10468244794109827,0.12380320746587285,0.17076163342034004,0.041250296346509605,0.09020066623420028,0.022705140761419135,0.07188306220379743,0.18469717414060552,0.09182717350863065,0.48981999622053923,0.09434049339516803,0.11357733491010165,0.15904981299506313,0.052000198875294903
0.15849121243297495,0.06127676235451776,0.104781811744427,0.1271967994555622,0.17277461828437363,0.04112151425966529,0.09092162293927641,0.022295644792771553,0.07150435333625435,0.18754562105681044,0.09518610172491178,0.4940014661727197,0.09641431405753444,0.11614293352578545,0.16174575460824875,0.05257910530236309
0.15529355087341293,0.06182003918682349,0.10494566358918063,0.130669540010681,0.17477633324552624,0.04098456244136656,0.09164307794959176,0.021888822175674075,0.07110594810041136,0.19039286796369484,0.09862334350682778,0.49805988342910823,0.09851679216754808,0.11874926387049939,0.1644951375110883,0.053168962446736204
0.15209257786895852,0.062416916165338836,0.10517425394891408,0.13422134880484207,0.17676450705029487,0.04083996482774436,0.09236419569928608,0.021485129041960933,0.07068845337488436,0.19323578370179262,0.10213880527256414,0.5019927260110534,0.10064687263280994,0.12139577989149594,0.1672993347602055,0.053770216529626096
0.14889152314883664,0.06306926681434437,0.1054678243116329,0.1378521242807721,0.17873665103685513,0.04068818832516629,0.09308411687893409,0.02108501057652308,0.07025240945182873,0.19607106180331374,0.10573237708002742,0.5057981560889926,0.1028034099188926,0.12408178645248923,0.170159814279697,0.05438339359477162
0.14569369607828284,0.06377892061504957,0.10582661728930638,0.14156172436550848,0.1806900020994913,0.04052964043554591,0.09380193877957287,0.0206888922495001,0.06979832247807687,0.19889513737592032,0.10940391247261008,0.5094748587151604,0.1049852021060749,0.12680639586244297,0.1730781280452716,0.05500909523172666
0.1425024984541344,0.06454769008055519,0.10625087695504615,0.1453499344257629,0.18262151092106887,0.04036468321783911,0.09451668664823348,0.02029717148110423,0.06932669200321605,0.20170414083562832,0.11315319816482564,0.5130218077928269,0.10719102219085959,0.12956850541914156,0.17605589300772495,0.05564798613433845
0.1393214181062626,0.06537739285197859,0.10674083870816566,0.14921642270325194,0.1845278871860248,0.040193655056288656,0.09522727780647904,0.019910212285209023,0.06883803320093666,0.2044939271282865,0.11697991353442921,0.5164379688870508,0.10941964509037563,0.13236680904491951,0.17909476436565452,0.05630077367546519
0.1361540051007508,0.06626986787262053,0.10729670848852361,0.1531606843211286,0.18640567841539127,0.04001689213240849,0.09593248796483422,0.019528345399979125,0.06833289353477293,0.20726016724899388,0.12088358483337544,0.5197219627948786,0.11166986884074029,0.13519983143200315,0.18219640181908608,0.056968180079215815
0.1330038331204692,0.06722698492076314,0.1079186316895832,0.15718198494198085,0.1882513556562031,0.03983474693904198,0.0966309399091182,0.019151873124053625,0.06781186381592981,0.20999846075092163,0.12486355189987121,0.5228717781820861,0.11394052858261866,0.13806596590662998,0.18536242945339063,0.05765090817501403
0.1298744491853877,0.06825064703787063,0.10860665262933018,0.16127933364499333,0.19006139612280207,0.03964760334242001,0.09732112608368983,0.01878107544725955,0.06727558374652408,0.21270444443837697,0.12891896865289976,0.5258846886802786,0.11623050210108547,0.14096350856987797,0.18859438993270333,0.058349605577518976
0.126769315250911,0.0693427856675842,0.10936067116214561,0.165451505694427,0.19183235996795311,0.0394558878368261,0.09800145270253005,0.018416215005410966,0.06672474215688128,0.21537388831031165,0.13304883842817386,0.5287574376520368,0.11853870593118387,0.143890687480921,0.19189369373737158,0.05906484131923946
0.12369174855918769,0.0705053486106072,0.11018041629152263,0.16969709914557993,0.19356095821912017,0.03926007678183069,0.0986702872157451,0.018057540214384,0.06616007223401786,0.21800277268089505,0.1372520659787688,0.5314865722395289,0.12086408134989318,0.14684568596300035,0.1952615642686495,0.059797109157214104
0.12064487858588982,0.0717402811891592,0.1110654563624791,0.17401459774752503,0.19524410883791932,0.03906069955777339,0.09932600142899924,0.017705286570828673,0.06558234210546868,0.22058734099261051,0.14152751058142257,0.5340687829412312,0.1232055699398843,0.14982665931607766,0.19869897976681383,0.060546854742438094
0.11763164327002217,0.07304950128965815,0.11201524173222292,0.17840242809660029,0.19687897787868092,0.03885833771535576,0.09996700779474625,0.017359676206689708,0.06499234119446698,0.22312412375550755,0.1458740339344556,0.5365011938389398,0.12556207881662798,0.1528317444166064,0.20220661553634894,0.061314511035072
0.1146548260076964,0.07443486920153806,0.11302915984480544,0.182859007225044,0.19846300286549098,0.03865362032460174,0.10059178657084651,0.017020915877125693,0.06439086280558806,0.22560993026240683,0.15029053948336646,0.5387815901103198,0.12793243604069057,0.15585906186841475,0.20578479901870167,0.062100530602405266
0.11171710953262434,0.07589815511938941,0.114106589091106,0.18738277699598802,0.19999389580290747,0.03844721584254748,0.10119890184103417,0.016689193641836752,0.06377868344011484,0.22804180619400957,0.1547759999880242,0.540908572357023,0.13031533717125882,0.15890671053489458,0.20943349570906097,0.06290541091408189
0.10882112500735198,0.07744101356705457,0.11524694682737167,0.1919722220732054,0.20146962370340177,0.0382398209142736,0.10178700480850675,0.01636467457214085,0.06315653938188466,0.23041695687329397,0.1593294705203627,0.5428816306507256,0.13270929202710996,0.16197275442831835,0.21315232871587045,0.06372971106837874
0.10596948966802437,0.07906497766263954,0.11644972918491553,0.19662586883699404,0.20288836516329978,0.038032146595894004,0.10235482329841625,0.016047496592576985,0.0625251011396425,0.23273263767500174,0.16395008464409636,0.5447011348793895,0.13511259730352373,0.16505520205501673,0.21694061432840844,0.06457405882609324
0.1031648324398355,0.08077147566556668,0.11771454054714801,0.20134226340932976,0.20424844234389,0.037824902539655716,0.10290113702062059,0.015737768938938437,0.06188494937897201,0.23498601485375323,0.1686370322562698,0.5463682417791846,0.13752335481751582,0.16815197841424484,0.22079739651307567,0.06543914735570051
0.1004098075734671,0.08256185836636423,0.11904111091040015,0.20611992790237427,0.2055482286956481,0.03761877971026905,0.10342473882761978,0.01543557470487947,0.0612365626504544,0.23717402012202432,0.1733895184310904,0.5478847227758146,0.13993952307527766,0.17126088992435654,0.2247214746517219,0.06632572167174441
0.09770709692572634,0.08443742599415031,0.12042929977334729,0.2109572950731984,0.2067860338658669,0.03741443220903612,0.10392438292492946,0.0151409757465006,0.06058032534102428,0.23929326655727517,0.1782067035567859,0.5492527202522074,0.14235897749693013,0.1743795826055748,0.2287114235117328,0.06723455533922867
0.09505940199575935,0.08639945059291783,0.12187908570306412,0.21585262270281802,0.2079599797532148,0.03721246084995098,0.10439872669117144,0.014854017401520191,0.05991655104162351,0.2413400873225209,0.18308762604656634,0.5504744429452135,0.14477956765052008,0.1775054938908955,0.23276560487251197,0.06816641857892093
0.09246942721432957,0.08844919277918072,0.12339054128598911,0.2208038995390789,0.2090679154476728,0.037013405312580384,0.10484628864194982,0.01457473200154971,0.05924551026585548,0.24331067628261405,0.1880311160819652,0.5515518137160312,0.14719916839511935,0.18063580094855602,0.23688217077143348,0.06912203940162565
0.08993985625778396,0.09058791201421469,0.12496379376718252,0.22580878070454954,0.21010742826711806,0.03681774947825167,0.10526545104073912,0.01430314097010679,0.05856745659410935,0.24520126149689708,0.1930357295072571,0.5524861303338018,0.14961572261243802,0.18376737879643898,0.24105905893552798,0.070102064628878
0.08747332331770954,0.0928168697778777,0.1265989722857339,0.23086459432312478,0.2110759526279077,0.036625935503460036,0.1056545100673886,0.014039255383758085,0.05788264973927631,0.2470082684856024,0.19809974009138775,0.5532778952781194,0.15202727343130087,0.18689679034579468,0.2452939815801362,0.07110703823577436
0.08507238130560996,0.09513732530654381,0.1282961432008483,0.23596841687658884,0.21197092449285254,0.03643837929356296,0.106011748531153,0.013783074965510367,0.057191374792806976,0.2487284589232757,0.20322119560676744,0.5539269277427011,0.15443198414795078,0.1900203165587213,0.249584409320165,0.07213741045178203
0.08273947031755502,0.09755052384313333,0.1300552408098356,0.24111717762861454,0.21278993706635416,0.03625548426908864,0.10633550826034702,0.013534585573419524,0.05649395699845872,0.2503590369596461,0.20839800497098832,0.5544326713734797,0.1568281444036305,0.19313401134433472,0.25392755238818504,0.07319356913454761
0.08047689489504367,0.10005767763061252,0.13187601720853595,0.24630776095834148,0.21353088135727122,0.036077652939775426,0.10662425332579549,0.013293755512399474,0.0557907715254488,0.2518977166830333,0.21362802543195322,0.5547945369814652,0.15921416158533766,0.1962337637266824,0.25832034162568707,0.07427587537385331
0.0782868215115646,0.10265994015017522,0.13375804079129394,0.2515370948839255,0.21419206459851833,0.03590529605357541,0.10687662042056939,0.013060532117001816,0.05508224787050003,0.2533427459430313,0.21890913784655497,0.5550122047617254,0.16158853685336194,0.19931536106261902,0.2627594117603328,0.07538469399098384
0.07617129739878152,0.10535837435109802,0.13570074543287214,0.2568022200544321,0.21477230014923,0.03573883914108496,0.10709145320897344,0.012834841331810091,0.054368868704197,0.25469288376619514,0.22423930535708214,0.555085868927833,0.1639498256596089,0.20237455157845075,0.26724108927211004,0.07652041666247124
0.07413227839517011,0.10815391583190359,0.1377035032685569,0.2621003341659619,0.21527096352946598,0.03557872632968501,0.10726781815442518,0.012616591648620801,0.053651163183078186,0.2559473308390505,0.2296166113688026,0.555016415558311,0.1662965830956907,0.20540710409840227,0.2717613866770499,0.07768347679431585
0.07217165431712838,0.11104733608150463,0.13976569714277232,0.2674288077326648,0.21568801061519,0.03542542135812962,0.10740500020977016,0.012405680668393461,0.05292969496458793,0.2571056148886733,0.2350392735587385,0.5548055272862211,0.1686272948934601,0.2084088624420753,0.2763160043358029,0.07887435577225096
0.07029126844225399,0.1140392199063307,0.14188678416848566,0.27278516837622346,0.21602395569368332,0.03527940578373349,0.1075024777623845,0.012202001914466269,0.05220504537572485,0.25816743514208973,0.24050563166411468,0.5544557114703674,0.17094029538862798,0.21137579161453493,0.2809003399677123,0.08009358068436573
0.0684929310256624,0.11712996894291011,0.14406634734052726,0.27816705223350907,0.2162798089649641,0.03514117444259341,0.10755987731645933,0.012005450873533625,0.051477792385960876,0.25913247226513525,0.24601410796333262,0.5539702515504472,0.1732336872063153,0.21430401264972182,0.28550950498322825,0.08134171401665566
0.06677842704089051,0.12031982557217026,0.1463041324758302,0.283572122653401,0.21645697507270395,0.03501122829931696,0.10757690950419438,0.011815929909601943,0.050748486209233556,0.2600001949701143,0.25156314061843277,0.5533530843004715,0.1755053044539309,0.21718982284498806,0.2901383456210879,0.08261933613092781
0.06514951856932139,0.12360890277028706,0.14860006819725635,0.288997957982602,0.21655711624516213,0.03489006490598051,0.10755328907989403,0.011633351753668414,0.0500176238078713,0.26076974833045946,0.25715109133629405,0.5526086085566623,0.177752749917687,0.22002969818728166,0.2947814657865307,0.08392702153110984
0.06360794244963117,0.12699721189133306,0.15095426722905525,0.2944419118436373,0.21658198550370641,0.034778166778256514,0.10748865201951592,0.011457641347831915,0.04928562966994226,0.2614399980742952,0.2627761300644135,0.5517414336202209,0.17997348410686873,0.2228202750564437,0.2994332475332048,0.08526531000545935
0.06215540393783998,0.13048468626361953,0.15336700792307403,0.2999009691755946,0.21653324663952728,0.03467598808576309,0.10738250618591638,0.011288735912691378,0.04855285349321906,0.26200969957619363,0.2684361116209756,0.5507560778436559,0.1821649268288919,0.2255583088211093,0.3040878644128673,0.08663467370956936
0.06079356721818157,0.134071199602423,0.1558386956742916,0.3053716637713873,0.21641233479349764,0.03458394059307409,0.10723424917737993,0.011126583206046047,0.04781958692736919,0.2624777010150512,0.2741284900721364,0.5496566367726379,0.18432455457660915,0.22824060772328614,0.30873928252271987,0.0880354815810304
0.0595240436466165,0.13775657842385192,0.15836980469589196,0.3108501136439657,0.21622043423385753,0.03450238220345677,0.10704324227049769,0.010971138043295312,0.04708608966723294,0.26284312560891365,0.27985032163154117,0.5484464954227749,0.18644998935066617,0.23086394146443504,0.3133812440825133,0.08946796754881867
0.05834837860578708,0.14154060784800035,0.16096080148527667,0.3163321496248047,0.21595858882410568,0.03443161376364244,0.10680890146769888,0.010822357249423962,0.04635261517724649,0.26310551607000765,0.2855983529663391,0.5471282302604158,0.18853907463914324,0.2334249251235389,0.3180072288205471,0.09093221721323592
0.057268037807489756,0.1454230303953334,0.16361205219299338,0.3218134709560339,0.21562787648230927,0.03437188601231681,0.1065307803492549,0.01068019330295323,0.045619432730705615,0.2632649336968858,0.29136914514961343,0.5457037692055707,0.1905899343202045,0.23591989823743387,0.3226103893575849,0.09242818162085176
0.056284394327324225,0.1494035375992776,0.1663237300027242,0.32728978968825606,0.21522957838251147,0.03432341175319036,0.10620863667654591,0.01054458781766428,0.044886845107846234,0.26332200686296287,0.29715919393635487,0.5441746988467621,0.19260101049094142,0.23834486057368867,0.32718346047528024,0.0939557087048003
0.05539871949657024,0.15348175447127926,0.16909576696944414,0.33275695180006193,0.21476531809505148,0.03428637768195522,0.10584247931480924,0.0104154679055575,0.044155201483696636,0.2632779263370845,0.3029650323996065,0.5425425768072699,0.1945710766866913,0.24069551908650916,0.33171866725496274,0.09551457889209991
0.054612181625009734,0.1576572170538117,0.1719278846128261,0.3382110280173222,0.21423716463921774,0.0342609538412976,0.10543259309351792,0.010292748040990785,0.043424905236058346,0.2631343877305901,0.3087833100966224,0.5408091957957956,0.19649922366050657,0.2429674254702252,0.3362076965675938,0.09710453995017553
0.053925852511739085,0.1619293434747072,0.17481968154052188,0.3436483684851319,0.21364769534681924,0.03424730029616723,0.10497954041508925,0.010176336271072154,0.04269641660665581,0.2628934842396185,0.31461084375552684,0.5389767885837118,0.19838481584889386,0.24515614484159648,0.34064177693061004,0.09872534013871394
0.05334071683550393,0.16629739906703228,0.1777707335051277,0.3490656169272947,0.21300001657144338,0.0342455707573398,0.10448413968720209,0.010066141534489715,0.04197025034576331,0.2625575555695637,0.3204446355349869,0.5370481657192381,0.2002274178455627,0.2472574211895985,0.3450118376135246,0.10037675842198385
0.05285768010740259,0.17076045623859917,0.18078068342752138,0.3544596816548316,0.21229774249365213,0.03425591303607374,0.10394742191523128,0.00996208014338048,0.041246968654576235,0.26212900132579325,0.32628185617553346,0.5350267807816753,0.20202669160556277,0.24926732772831411,0.3493086939269378,0.10205863016791047
0.05247757403650568,0.17531734986222033,0.18384931464771498,0.3598276626818018,0.2115449344321105,0.03427846637600478,0.10337056797377131,0.009864080858121902,0.0405271699034508,0.2616100793032772,0.33211979178582585,0.5329167212601188,0.20378226664929577,0.2511823938371326,0.3535232335161073,0.10377086647434555
0.05220115942953584,0.17996663221830816,0.18697660272289257,0.3651667361911561,0.21074600504602922,0.03431335586900962,0.10275483010913979,0.009772088326198539,0.03981147374228377,0.26100274862590667,0.3379557545382989,0.5307226265474829,0.2054936022100947,0.2529997008478025,0.3576465926529251,0.10551346508713234
0.05202912684792407,0.18470654037277204,0.19016274191960245,0.37047399957825594,0.2099055934910019,0.034360684308477794,0.10210144306802753,0.009686064749823736,0.039100503327376857,0.26030864078389276,0.34378695912932195,0.5284495378926586,0.20715990006432114,0.25471694001922035,0.361670310835726,0.1072865108724042
0.05196209532839815,0.18953499051193043,0.19340814364852213,0.3757462821967783,0.20902841887554505,0.03442052195650193,0.10141154402499615,0.009605989746732014,0.0383948654642539,0.25952917318220076,0.3496103684286507,0.526102688269131,0.20878012861518663,0.25633242759856606,0.3655864520544224,0.10909016402740226
0.05200060953479663,0.19444959845075133,0.19671340542335022,0.3809799532053761,0.20811912019435336,0.03449289483242746,0.10068614095043625,0.009531858468252384,0.037695130063952066,0.25866572732527476,0.3554225286965754,0.5236872428272595,0.21035314828709106,0.2578450738345039,0.3693876819180986,0.11092463468768075
0.05214513574807377,0.19944771229163863,0.2000792504292437,0.38617081391170605,0.20718210975543516,0.034577773805148315,0.09992614984976951,0.009463678132354901,0.037001813578101304,0.2577198142993375,0.36121945764718183,0.52120800275475,0.21187787555036183,0.2592543050818201,0.3730672914766231,0.11279014331157478
0.05239605711839745,0.2045264465925967,0.20350643938403715,0.3913141480770646,0.20622150264893124,0.034675069705582026,0.09913247094559377,0.009401463211282515,0.036315374546092495,0.25669320038081456,0.3669966549711409,0.5186691229800652,0.21335343991053432,0.2605599405835897,0.3766191609404693,0.11468686715885539
0.05275366859857442,0.2096827150173349,0.206995657978499,0.39640489529287354,0.20524116004222115,0.034784637515602394,0.09830606369451149,0.009345229578971635,0.035636224155924254,0.2555879871078167,0.3727492303513485,0.5160739694347068,0.2147793175120978,0.2617620279813066,0.3800376594979527,0.11661487812538422
0.053218171953238996,0.21491326075449915,0.21054739471063788,0.4014378585901108,0.2042448008797063,0.034906285939171715,0.09744800558701655,0.009294987997185186,0.03496474473094465,0.2544066428559836,0.3784720807346809,0.5134252055336074,0.21615543358771439,0.2628606439193226,0.38331748087771533,0.1185740925640417
0.05378967119545218,0.22021468398944952,0.2141618536868464,0.4064078962017129,0.20323611425546811,0.035039787054973105,0.09655953238342849,0.009250738199473196,0.034301308040319,0.25315198578638165,0.3841600635025199,0.5107250350715605,0.21748222743362763,0.26385568778368257,0.38645341799631433,0.12056426356254103
0.05446816874421969,0.22558346568578075,0.21783895356039387,0.41131008221081256,0.2022188456281386,0.03518488404165614,0.09564205858207817,0.009212466309541987,0.03364629067066501,0.25182712080792086,0.38980814641855893,0.5079754676844386,0.21876067552294146,0.2647467486497,0.3894400913325722,0.12258502324242651
0.05525356252591295,0.23101598688503341,0.22157841128424496,0.4161398273426625,0.20119685363387996,0.03534129666271036,0.09469717809847142,0.009180147074344749,0.03300008612889616,0.2504353357525415,0.3954115258978876,0.5051785431699213,0.21999227066027438,0.26553312703122356,0.39227170294636104,0.12463594987820588
0.0561456441628766,0.23650854266544405,0.22537985955306739,0.4208929526495517,0.20017413691551694,0.035508724303204564,0.09372664628036013,0.00915374880488248,0.0323631134814678,0.24897996414803053,0.4009657061185394,0.5023365007951271,0.22117895757713665,0.2662139960027239,0.3949419603461206,0.12671663295246627
0.05714409830700165,0.24205734982160704,0.2292429550969674,0.42556571071173105,0.19915483197818368,0.035686846453691454,0.09273234542128433,0.009133238156591462,0.031735822469673235,0.24746422366725793,0.4064665328783987,0.4994518875886495,0.222323027887811,0.2667886125979633,0.3974442444650797,0.12882672502148754
0.05824850308814513,0.24765854724768266,0.2331674620755037,0.4301547511648491,0.19814318451252996,0.0358753206332204,0.09171623680047246,0.009118583702050586,0.031118695169292096,0.24589105976000797,0.4119101778534905,0.4965276025212536,0.22342697968505704,0.2672565151750586,0.3997719257416801,0.13096597621588688
0.05945833156034619,0.2533081879416733,0.23715330459700942,0.4346570297794688,0.1971434978308257,0.036073777831034576,0.09068030291932108,0.009109758182036274,0.03051224438130433,0.24426306413122548,0.41729307098340096,0.49356687643862535,0.22449334907950091,0.2676176865269753,0.40191869681459996,0.13313424831359721
0.06077295394607642,0.25900222151406666,0.24120058400664007,0.43906966285975174,0.19616006299265476,0.03628181562414904,0.08962648398987474,0.00910673940032865,0.029917009044819066,0.24258251709573853,0.42261178101907687,0.49057319049253295,0.22552453412639237,0.2678726762954525,0.40387886797088335,0.13533150674639352
0.062191640403359894,0.26473646609857954,0.2453095585591583,0.4433897312839933,0.19519707582819415,0.03649898919592019,0.08855661938932533,0.009109509805232013,0.029333547050700907,0.24085151315175266,0.42786284672049957,0.48755013850620293,0.22652266768315188,0.2680226784696797,0.4056476097073506,0.13755779051351727
0.06371356397541135,0.27050656864306616,0.24948058531334166,0.4476140409605456,0.19425854639035545,0.036724801074439664,0.08747241754705795,0.00911805487224224,0.028762425902424515,0.23907209464548973,0.4330425636732834,0.48450124110241927,0.2274896058538913,0.26806956208626076,0.40722112917893416,0.13981316163254712
0.06533780333017605,0.27630795272008934,0.25371402642340657,0.4517388792123737,0.1933482144339789,0.036958692720666424,0.08637546895364717,0.009132360463938298,0.028204211718394205,0.23724635696403554,0.4381467562888312,0.4814297214316586,0.22842703154237268,0.26801585553543483,0.4085967704882898,0.14209763730898953
0.06706334486026927,0.2821357532507538,0.2580101243105286,0.4557598772652629,0.19246950136207325,0.0372000430142871,0.08526728581037447,0.009152409392078273,0.027659457096967034,0.23537651743160592,0.4431706256869047,0.4783382690397164,0.22933660372429357,0.26786468698089255,0.40977303253581004,0.14441111098060214
0.06888908369445741,0.2879847378883845,0.26236886209873533,0.4596720735183844,0.1916255205574668,0.03744817541443767,0.08414934175388851,0.009178177441074,0.027128688371939432,0.2334649455600324,0.4481087716579753,0.4752288682000853,0.23022009336015153,0.2676196852079393,0.410749502280628,0.14675328137348667
0.07081382317179175,0.29384922525141854,0.26678985781263664,0.4634701359229375,0.1908191278505945,0.03770237011401354,0.08302309995664947,0.00920962926490625,0.02661239402486659,0.2315141546090132,0.45295537948274806,0.4721027862677477,0.23107948701009226,0.26728484665501145,0.4115267055248239,0.14912362361378412
0.0728362723501926,0.2997230349425215,0.2712723520470941,0.46714863009463636,0.19005297591870493,0.03796187697652332,0.08189002811866011,0.009246715135856799,0.02611101868936105,0.2295267566256904,0.45770447342298115,0.46896072806084765,0.23191705457687004,0.2668643754223471,0.4121058814843896,0.1515214164978444
0.07495504116358101,0.30559950419259124,0.2758152928194709,0.4707022670910377,0.18932955345589858,0.03822592762911351,0.08075160072364079,0.009289369870828987,0.025624966079053534,0.22750538513268023,0.46235016110148086,0.4658030612300436,0.23273537974296735,0.2663625036890331,0.4124886912210355,0.1539457981679246
0.07716863290581649,0.31147156451359315,0.28041745991254563,0.4741261105980034,0.18865120529411508,0.03849374617726981,0.07960928971501105,0.009337514096996173,0.025154608284090066,0.22545259131367223,0.46688684169164646,0.4626300268562047,0.23353735375699122,0.2657833027062328,0.4126768732712388,0.15639581600091895
0.07947543380521711,0.3173318454289107,0.28507757621900526,0.4774157327423478,0.18802013331177075,0.03876455800662023,0.07846454540138449,0.009391056406348264,0.024700296269150133,0.22337072446380749,0.47130936609397467,0.45944190586250616,0.23432613514033984,0.26513052035621076,0.41267189747249367,0.1588704577712401
0.08187369955898427,0.32317278418240764,0.2897943864447386,0.4805673098307347,0.18743837900003027,0.03903759615531671,0.07731876989480115,0.00944989498743878,0.02426236890615545,0.22126182953945978,0.47561313913846726,0.4562391337716437,0.2351050795307554,0.26440751832735876,0.4124747540025595,0.1613686618209785
0.08436154093635737,0.3289867343894744,0.2945666967581691,0.4835776518569683,0.18690778951928227,0.03931210478020993,0.07617328569796165,0.009513918284866668,0.02384116002785115,0.21912761764511904,0.47979415629480787,0.45302235874531777,0.23587764518643428,0.2636173438873553,0.4120860041009958,0.16388930544379887
0.08693691523369618,0.33476606912812057,0.2993933714093995,0.48644416250901934,0.18642996993075936,0.039587339304239536,0.07502930555961788,0.009583004666505225,0.02343700342443811,0.21696953089859033,0.48384897029539087,0.44979244049983236,0.2366472806031271,0.2627628777673125,0.41150604921022527,0.1664311721571807
0.08959762919526468,0.34050327359081806,0.30427328510176654,0.4891647295120317,0.18600623214136555,0.03986256292271461,0.07388791652373332,0.00965702114526562,0.023050235783884106,0.21478885655788826,0.48777458634912063,0.4465503904865252,0.23741730123317686,0.2618469835255904,0.4107354666437952,0.1689928998983787
0.09234135087697509,0.3461910222224915,0.3092052327939505,0.49173754831982036,0.18563756724901728,0.040137039262494664,0.07275008683159691,0.009735821267131978,0.022681197650222678,0.21258683669489947,0.4915682880920315,0.44329725653644975,0.23819076553120086,0.260872631935454,0.40977531300410397,0.1715729172762947
0.09516562474692368,0.3518222352914781,0.3141878014453957,0.4941608852652583,0.18532466298183659,0.040410021128778055,0.07161668756332987,0.009819242719218985,0.022330232540669924,0.21036475350648662,0.49522739991347625,0.4400339578676386,0.23897037590981796,0.25984299713009007,0.40862736670253585,0.17416939056913555
0.09806788737791308,0.35739011010480637,0.3192192227095934,0.4964327891521072,0.18506795513440455,0.040680735435667525,0.0704885143683828,0.009907106052985006,0.02199768441966944,0.20812398651807568,0.4987489946350161,0.43676107881325016,0.2397584428312109,0.25876152229510185,0.4072943004300691,0.17678021401320412
0.10104548283712256,0.3628881226023936,0.3242972630018935,0.4985507955573054,0.18486768574268278,0.040948365437301605,0.06936630203772258,0.00999921557470026,0.021683893774337482,0.20586603961083705,0.5021295976174732,0.4334786588868602,0.240556919674647,0.25763195379948023,0.40577977805790133,0.17940305188512176
0.10409567680962756,0.36830999584961277,0.3294192183003074,0.5005117487343381,0.18472395239118056,0.04121203562092627,0.06825073059241084,0.010095361736223015,0.02138919257005374,0.20359253751670134,0.5053650264507381,0.4301860789425924,0.24136746771741716,0.2564583437888703,0.4040884742549866,0.18203540657880338
0.10721566841239656,0.37364963298279397,0.33458201650507713,0.5023118582589607,0.18463674369161429,0.04147080879920149,0.06714242292194854,0.010195323641754935,0.02111389838644124,0.20130519307925565,0.5084504800098186,0.4268821267564643,0.24219150957256255,0.2552450224121776,0.402226018881092,0.1846746851443835
0.11040259861188592,0.3789010134216036,0.33978236375463494,0.5039469547564781,0.18460595832420562,0.041723699501356085,0.06604193454959417,0.010298870924967465,0.020858308042528445,0.1990057480852413,0.5113808170682772,0.423565201167358,0.24303025790229174,0.2539965419883088,0.40019887174395163,0.18731825336905247
0.11365355415810555,0.3840580526055467,0.345016878372782,0.5054128115856424,0.18463140592568786,0.04196969720219263,0.06494973667480383,0.010405764722783626,0.020622691015916274,0.19669589175629748,0.5141508818883718,0.4202335500679339,0.24388471910261666,0.252717596508778,0.3980141364092563,0.18996347369997307
0.11696556599675469,0.38911442708511423,0.3502821910514492,0.5067054454850533,0.184712789106836,0.042207791305140546,0.06386619798988775,0.010515757563250261,0.020407283534694298,0.19437716199576474,0.5167557981665206,0.4168854816569428,0.24475567320528638,0.25141292086982214,0.3956793242645537,0.19260772412759394
0.12033560122308623,0.3940633842466744,0.35557500336729453,0.5078213687608595,0.18484966693329,0.04243699455960342,0.06279157846438596,0.010628592052333855,0.020212285444181306,0.19205084856698015,0.5191912078379812,0.41351953074863007,0.24564363275967954,0.25008717508330836,0.3932020818452085,0.1952483960665406
0.1237605477991487,0.39889760562970256,0.3608920991614931,0.5087577810492607,0.18504140124921153,0.04265636372372744,0.06172604395073548,0.01074399832343599,0.02003786134573263,0.18971794555866034,0.521453441657304,0.4101345712680305,0.2465487848615367,0.24874481937469844,0.3905898954628867,0.19788287024866832
0.12723719147041154,0.4036092117578267,0.3662303060704143,0.5095126911865445,0.18528709537042148,0.042865016314884055,0.06066969428810052,0.01086169084801556,0.019884144660010077,0.18737918765177952,0.5235396115779113,0.4067298686850452,0.24747092755186892,0.2473899957030219,0.3878498216653785,0.20050847064081026
0.13076218458640637,0.408189917969065,0.37158640740747856,0.5100849626777235,0.18558555428791115,0.04306214238356074,0.059622592656726245,0.010981366603900552,0.019751242068340745,0.18503514459735498,0.525447618647443,0.4033050691477894,0.2484094268119175,0.24602645355225086,0.3849883585315744,0.20312239738493282
0.13433200684800398,0.4126312659863654,0.3769570074889932,0.5104742795504231,0.18593529770476813,0.04324701040287418,0.058584790858323896,0.011102706584638636,0.01963923705105602,0.18268632496507642,0.5271760742340855,0.3998601253215617,0.24936321788668775,0.24465755332968564,0.3820115295557206,0.20572164159779474
0.13794292488202223,0.4169248634529461,0.38233835803254757,0.5106810328750059,0.18633462345993326,0.04341896658267093,0.05755634902979107,0.011225380325665113,0.01954819230948599,0.18033326549528095,0.5287241366946775,0.39639516225816523,0.25033084238134845,0.24328633120419232,0.3789250994483846,0.2083029017016182
0.14159097162530165,0.4210626063460151,0.38772618706119777,0.5107061317745455,0.18678169153622512,0.04357742718731224,0.056537348649986593,0.011349051629916526,0.019478151082583373,0.17797660070879945,0.530091269863816,0.3929102898328934,0.2513104901074839,0.2419155771290745,0.3757347983574356,0.21086254965303253
0.14527196198395484,0.42503687415274405,0.39311562722776355,0.5105507461819352,0.18727460572455068,0.04372186374905029,0.05552789810966698,0.011473384242081077,0.01942913741735753,0.17561711044125222,0.5312769337575804,0.389405371643925,0.25230002347982233,0.24054789463543985,0.3724465050679529,0.2133966791246105
0.14898153548069087,0.4288406882373685,0.39850130469160316,0.5102159917680742,0.18781148446534202,0.043851781410228906,0.0545281305577428,0.011598046933654087,0.019401155496344136,0.17325574412052827,0.5322802352686551,0.38587980067730926,0.253296976650234,0.2391857344100613,0.3690663831856826,0.2159012089711591
0.1527152072239251,0.4324678248502353,0.40387753087767153,0.5097025923441196,0.1883905168606742,0.043966690980404795,0.05353819418618674,0.011722717615095211,0.019394188163469557,0.1708936217437063,0.5330996364842269,0.3823324061119207,0.2542985268247651,0.2378314010269876,0.3656009689220717,0.21837199835011356
0.1564684187624091,0.43591287570801396,0.40923850655413085,0.5090106301832272,0.18901000051169656,0.0440660775786847,0.05255823554504701,0.01184708612739697,0.019408194820226817,0.16853201257715747,0.5337328823150888,0.3787615715434598,0.2553014471592762,0.23648703387202993,0.36205721131932683,0.22080495515825135
0.16023658613456765,0.4391712509623284,0.4145784997048065,0.5081395286115761,0.1896683586655757,0.044149376190159954,0.051588376863840865,0.01197085542434222,0.01944310888556944,0.16617229355434776,0.5341772048691675,0.3751654860884872,0.25630207829928664,0.23515456493929632,0.3584424676768974,0.22319613259691817
0.16401514234842685,0.44223912159957823,0.4198919860207172,0.5070882840446878,0.1903641351109097,0.04421596920528948,0.050628690185290114,0.012093740935520651,0.019498835024122564,0.16381589014358486,0.5344296759830618,0.3715424057646271,0.2572963605344632,0.23383565767773906,0.35476445849950805,0.22554180896928394
0.16779957144267776,0.4451133007822837,0.42517374238817524,0.5058558136520596,0.19109596629261302,0.04426520960194834,0.04967917718514185,0.012215467994375628,0.019575246347330454,0.16146420307735312,0.5344875588649065,0.3678908752601024,0.25827992776797665,0.23253163740729269,0.3510311874491524,0.22783854633168257
0.17158543132008344,0.4477910662374226,0.4304188858088805,0.5044412936007026,0.19186253117619453,0.0442964573673683,0.04873976755492838,0.012335767319756859,0.019672181780556602,0.15911852476187371,0.5343486020902142,0.3642098989651346,0.2592482312151106,0.23124344002650835,0.3472508325487894,0.23008322435600675
0.17536836272606837,0.4502699283928957,0.43562285267719486,0.5028444436170693,0.192662480426175,0.04430911624148516,0.047810339070779334,0.012454368647594763,0.019789443766050914,0.15677995772472578,0.5340112614420417,0.36049905288580814,0.26019666641777184,0.22997160968319993,0.3434316152801766,0.23227304668762114
0.17914408207765642,0.4525473514275028,0.4407813161699683,0.5010657453415986,0.19349434742523497,0.04430266581294338,0.046890748410736635,0.01257099309265416,0.01992679647038893,0.15444936720395513,0.5334748386101319,0.3567585322648301,0.2611206905326672,0.2287163448933145,0.33958165428949355,0.23440551816676158
0.18290835633409627,0.45462045462938083,0.4458900425644228,0.49910658500346006,0.1943564523528582,0.04427668730590456,0.04598086132467818,0.0126853466534164,0.020083964622189164,0.15212739659422597,0.5327395298528674,0.3529891331986999,0.2620159204645198,0.227477560565499,0.3357088102226343,0.23647839247306543
0.1866569587359209,0.4564857864249427,0.450944690460443,0.49696931446596754,0.19524683441449298,0.04423088165408019,0.04508057799725126,0.012797118945684919,0.020260632926557158,0.14981453414560308,0.5318063821709377,0.34919217005885006,0.26287820320802796,0.22625493748890013,0.3318205345450429,0.23848959099634526
0.19038560501043353,0.45813929935738196,0.45594056492303503,0.4946572285084552,0.19616325447641225,0.04416507880147706,0.04418985257464894,0.012905988776135413,0.02045644594909522,0.14751119468423568,0.5306771591136342,0.34536933388834784,0.26370365120624395,0.22504794907245604,0.3279237594800928,0.24043709497070315
0.19408987052590243,0.4595765494619492,0.46087238755393983,0.4921744601228804,0.1971032697675845,0.0440792375811047,0.04330870615600996,0.013011633662856077,0.020671008502561972,0.14521779369421112,0.5293541228019051,0.3415224999643873,0.2644886375331955,0.22385586264697177,0.32402487955796716,0.24231881407160366
0.19776509987283789,0.460793007538581,0.4657342132660157,0.48952579941110164,0.19806434126179162,0.04397343598236497,0.0424372329048744,0.013113739812285287,0.02090388651755577,0.14293480784938364,0.5278397428765431,0.33765349522644367,0.2652297481250157,0.2226777143953099,0.3201298298971519,0.24413244396459138
0.20140634762419504,0.4617843721706901,0.47051956754121405,0.486716445175184,0.19904393995389014,0.04384785210033774,0.041575599294618536,0.013212011149864597,0.021154608203234053,0.14066282053148316,0.5261363466530433,0.3337638617516661,0.2659236909442345,0.22151225879545797,0.31624420802103703,0.2458753563373948
0.20500839272244992,0.46254684537330754,0.475221720385875,0.4837517013190308,0.20003964033655414,0.043702736538762145,0.04072403684399906,0.013306176949933381,0.021422665267746124,0.13840255153852488,0.5242457668693316,0.3298547114697252,0.2665671646758755,0.22035790815873624,0.3123733896352727,0.24754458421095263
0.20856582375688917,0.46307736018949447,0.4798339756495552,0.4806366348085548,0.20104919727652845,0.0435383774856935,0.039882829006490074,0.01339599766909794,0.021707513976117275,0.1361548708458346,0.5221691362623717,0.3259267619310197,0.2671566970477355,0.21921270706428753,0.3085226230693831,0.24913691682553468
0.21207315597170578,0.4633737514874757,0.4843499250824707,0.47737576352791117,0.2020706032160274,0.043355060856434424,0.039052293134549936,0.013481268665723736,0.02200857581294093,0.13392079690548933,0.5199069600015735,0.3219805257601711,0.2676884982764914,0.21807437833122836,0.30469710071156697,0.2506490515598895
0.2155249500345474,0.4634348634881658,0.48876365224529816,0.4739729286443298,0.2031021234717258,0.04315303488119466,0.03823275863572619,0.013561821581935389,0.02232523752216935,0.13170148053573202,0.5174594114419282,0.3180165469437711,0.2681584183022895,0.2169404235405115,0.3009020064928494,0.25207774958710477
0.21891592117888461,0.4632605900632704,0.4930698734742149,0.47043144000754306,0.20414230832461203,0.04293249779441603,0.037424542564199484,0.013637523268584008,0.022656850317027025,0.12949817594011412,0.5148266892772018,0.31403561189692925,0.2685620522778638,0.21580823794735485,0.29714253923849016,0.2534199761947053
0.2222410324756802,0.462851846473123,0.49726400597855924,0.46675438445536976,0.20518998153886087,0.04269361782582449,0.03662792585678565,0.013708272242831488,0.023002728089221273,0.12731220079064945,0.512009336469543,0.3100389140417714,0.2688949349808074,0.2146752187049412,0.29342391249587896,0.2546730206309202
0.2254955662284526,0.46221047384749997,0.5013421566693715,0.46294494117375246,0.20624420586782388,0.042436571756523024,0.03584313834192963,0.013773992776961097,0.023362144724155633,0.12514488759843684,0.5090084921893536,0.3060281656749062,0.2691527440680281,0.21353885871774259,0.2897513322503307,0.25583459110390777
0.22867516807234883,0.4613390802454276,0.5053010292990637,0.45900664510435185,0.20730422695583234,0.04216158391625308,0.03507036047479605,0.013834626820588123,0.023734331626251156,0.12299752877235812,0.5058260660590581,0.30200565371593846,0.26933147979971317,0.21239682010163063,0.28612995472023717,0.2569028814723985
0.2317758592935383,0.46024082446674436,0.5091377517161605,0.45494358882756086,0.20836939778785413,0.04186895865029807,0.034309739539332425,0.013890124052071589,0.024118477478455917,0.12087131783034147,0.502464827970646,0.29797423882527,0.269427612391751,0.2112469823399191,0.2825648271363101,0.25787660718778654
0.23479401414879733,0.458919150849035,0.5128496292659712,0.4507605564756062,0.20943908644664935,0.041559104800335846,0.033561410381687216,0.013940430570277475,0.024513731259368038,0.11876729384913103,0.49892841099208374,0.2939373002077002,0.269438189901779,0.21008746162095274,0.27906081500528274,0.25875500914212596
0.23772630051128676,0.45737748500441283,0.5164338343572085,0.4464630865537765,0.21051257039265284,0.041232551168445535,0.032825513703631015,0.013985478600118001,0.024919207563568444,0.1166863078540218,0.49522122916632233,0.28989863103877306,0.26936090162471543,0.20891659943375937,0.2756225197867222,0.259537825207005
0.24056958392838484,0.4556189184254534,0.5198870769568628,0.4420574638977686,0.2115889240086235,0.040889952410033695,0.032102210082543034,0.014025182495714666,0.025333992857156023,0.11462902902194406,0.49134831611450447,0.28586229173843586,0.26919409423083374,0.20773292018392048,0.27225419113199506,0.26022523037842094
0.24332079706106644,0.4536459713121698,0.523205386011286,0.4375506442080202,0.21266692492469685,0.04053208530229677,0.031391689538678186,0.014059444052135361,0.025757151995149923,0.11259598469355815,0.4873150940718988,0.2818324301663272,0.26893674018577995,0.20653505926928842,0.26895964642560105,0.2608177475357187
0.24597677837520954,0.4514605584997854,0.5263841394965767,0.43295011752816365,0.21374502520578453,0.040159835831328435,0.030694176701949356,0.014088163537168396,0.02618773460799785,0.11058761142582497,0.48312708612636884,0.27781307914375536,0.2685883602200829,0.20532166462566565,0.26574222862182123,0.2613161318404818
0.248534110257237,0.4490641798817723,0.5294183257091566,0.42826371954615006,0.21482140623370127,0.039774178005004955,0.03000993184057769,0.01411125134212971,0.02662478091563596,0.10860430187644876,0.47878958684546047,0.2738079679579816,0.2681489036559169,0.204091276128208,0.2626048254638482,0.26172123270558556
0.25098903949320134,0.44645821960348836,0.5323028921668079,0.4234994015912582,0.21589408137100582,0.03937614570454845,0.029339248192637453,0.014128638288323447,0.027067326498496167,0.10664644379875755,0.47430735192829543,0.26982043455902993,0.26761859216323947,0.20284220533067182,0.2595499323916543,0.2620338380184036
0.25333754296891714,0.4436442411640479,0.5350330729320341,0.4186649716054399,0.21696100348557645,0.03896679921317052,0.028682446181224706,0.014140284202399432,0.02751440554943808,0.10471445080614902,0.4696844548611557,0.2658534932979854,0.2669977339414712,0.20157247504945872,0.2565797235424032,0.26225451256830984
0.2555754972763068,0.44062423990656424,0.5376046570137075,0.41376783651311777,0.21802016224255674,0.03854718955666062,0.02803986518995587,0.01414618444784829,0.027965052151807487,0.10280878487541074,0.46492440714025934,0.26190999908702434,0.26628652006207576,0.20027986502610928,0.25369611278661236,0.26238347146131347
0.2576988708330791,0.43740084444644534,0.5400141836201572,0.40881482659885715,0.2190696687249367,0.03811832982720082,0.02741185362579384,0.014146374186384,0.02841829917851878,0.10092997082082127,0.46003044612441907,0.2579928156728176,0.26548484718468546,0.1989620352715144,0.2509008018654514,0.26242055166456174
0.2597038993550217,0.4339774605565192,0.5422590534850522,0.4038121911928084,0.2201078253230966,0.03768118763178552,0.02679875800155083,0.014140930238124258,0.02887317448564562,0.09907860317866811,0.4550058371620418,0.2541049498063808,0.26459225461733543,0.19761666696480504,0.24819531585492663,0.26236529853743334
0.26158723377164733,0.43035835325388827,0.5443375495168107,0.39876575586484797,0.22113317923323528,0.037236702485125533,0.02620091173415284,0.014129970508982959,0.02932869418029966,0.09725534609243391,0.44985412617952714,0.2502496453131435,0.2636080183545092,0.19624159039585204,0.2455810267462555,0.2622171120479552
0.2633460530253014,0.4265486652396807,0.5462487644428344,0.3936811391625272,0.2221445583220829,0.036785815247982724,0.025618624282472514,0.014113651053197174,0.029783852873648393,0.09546092688479065,0.44457933154592044,0.2464304349619326,0.2625313357517013,0.19483489212921168,0.243059166328765,0.26197539445872664
0.2649781358299233,0.4225543723402093,0.5479924377196802,0.38856394777540965,0.22314108854936793,0.036329495800493855,0.02505217116356575,0.0140921609340931,0.03023761165103638,0.0936961240501554,0.43918606957761885,0.2426511503646792,0.26136151497931903,0.19339499727173398,0.24063082977824218,0.26163967980242403
0.266481887428359,0.41838217908744696,0.5495687085335349,0.3834199260839102,0.2241221925883619,0.03586876422252154,0.024501786111719798,0.014065715132775967,0.03068888769735503,0.09196175041069041,0.4336796114631727,0.23891589236208383,0.2600981377697253,0.19192072390674103,0.23829697139466588,0.2612097419508766
0.2678563195565152,0.41403935995259505,0.5509777959926888,0.3782550565439143,0.2250875697445514,0.03540470484877406,0.02396765790502391,0.01403454582850318,0.03113655255939275,0.09025863216115361,0.42806587274707936,0.23522896634283424,0.25874119029832077,0.19041130801970657,0.23605839381979057,0.2606856790000669
0.26910098406703464,0.40953355390190654,0.5522196261216907,0.37307560981084287,0.22603715773616406,0.03493847298742043,0.02344993272277054,0.013998892432866552,0.0315794421254138,0.08858758449634155,0.42235133964035654,0.23159478860114704,0.25729115845564365,0.1888663985228836,0.23391573183108977,0.26006797263422543
0.2702158628515279,0.4048725217769051,0.5532934886616161,0.36788814588980856,0.2269710773577672,0.0344712945035172,0.02294871912218698,0.013958990800204907,0.03201637391680481,0.08694938448072961,0.41654293917267704,0.22801777107821575,0.25574908526910695,0.18728602323322416,0.2318694314967479,0.2593575220438949
0.27120121870457536,0.4000638774210497,0.5541979029700335,0.3626994698030186,0.227889561486257,0.0340044588479429,0.022464092412156068,0.013915063155140472,0.032446166070228814,0.08534474179331715,0.4106478624427252,0.22450219260330417,0.2541165897582975,0.1856705278192599,0.2299197251334447,0.2585556528101023
0.27205741348854495,0.3951148298576209,0.5549307923893578,0.3575165471963231,0.22879287029199077,0.03353930643696894,0.021996097587154536,0.013867312627937717,0.03286765560016312,0.08377426796882212,0.4046733518725826,0.22105207503519755,0.252395847996369,0.18402049076582147,0.22806660218099897,0.2576641018941333
0.2727847027007,0.39003203336824593,0.5554898423128835,0.35234638688603176,0.2296811948708352,0.033077211539721235,0.021544751090401555,0.013815925324829344,0.033279714946354795,0.08223844819195601,0.39862646437917204,0.21767110658089117,0.25058953854543636,0.18233661827615755,0.226309775838129,0.2566849804663545
0.27338304683907144,0.384821629201744,0.5558728662165695,0.34719589851752164,0.23055455180071627,0.03261956199869268,0.021110041719087435,0.013761077782138713,0.033681265803259766,0.08073762735715762,0.39251383991166355,0.21436264915513525,0.24870075568477884,0.18061962371279897,0.22464864512740004,0.25562071675742626
0.27385203285276494,0.3794894387811209,0.5560781100901185,0.34207173423345577,0.2314126777234527,0.03216773718641315,0.020691931001607988,0.013702945453377514,0.034071289273976846,0.07927202000731513,0.38634155078315485,0.21112981241045056,0.24673289491322473,0.17887010125606692,0.22308225266412252,0.25447398142364547
0.27419096075866944,0.3740411965260985,0.5561044796994831,0.33698013181067715,0.2322549537470512,0.03172308674444917,0.020290353368086843,0.013641710009358585,0.03444883149165854,0.07784173845705376,0.3801151092084717,0.20797554213257555,0.24468951604739345,0.1770884253462281,0.22160924688909978,0.25324759809941766
0.2743990317444892,0.36848275425306964,0.5559516789394211,0.3319268033115477,0.23308039808859618,0.03128691592092638,0.019905216403704625,0.013577565000255615,0.03481300400599838,0.07644682601189397,0.3738396164251373,0.20490268931229627,0.24257418983252602,0.1752747264401086,0.22022787180122275,0.2519444418864232
0.27447554577818445,0.3628202397907167,0.5556202520111708,0.3269169216472599,0.2338877298227625,0.03086048364126567,0.01953640142328659,0.013510719777880435,0.0351629784371245,0.07508728820677966,0.36751995994201164,0.20191405199117957,0.24039033479683028,0.1734289581065332,0.2189359993720902,0.250567328527379
0.2744200738075223,0.35706016571976973,0.5551115270660936,0.32195520317810206,0.23467546645037654,0.03044501208949975,0.019183764539972087,0.013441401661990291,0.03549797514697792,0.0737631203423385,0.3611609901884923,0.1990123900638377,0.23814107218350788,0.17155101109952245,0.21773119173869146,0.2491188969603343
0.27423259865408345,0.35120948658929335,0.554427464044531,0.31704602579629426,0.23544202231145128,0.03004169984883578,0.018847138325867676,0.01336985641723035,0.03581724595900146,0.07247433056700867,0.35476765785791226,0.19620041490942844,0.23582916460632,0.1696408261297371,0.2166107726527433,0.24760149342409046
0.2739136200717744,0.3452756054091927,0.5535704144486283,0.312193530621665,0.23618579759732283,0.029651732469555922,0.01852633408386839,0.013296347183187677,0.0361200512579605,0.07122095783814511,0.3483451099789029,0.1934807572189676,0.23345707608551197,0.16769848866888415,0.21557189997990975,0.2460170861126339
0.2734642208962342,0.3392663325420969,0.5525428054546484,0.30740169184590466,0.23690525611789365,0.029276288931095882,0.01822114467279918,0.013221152065195052,0.03640563357250027,0.0700030842276614,0.34189874476340726,0.1908559175949424,0.23102710426332865,0.16572430307918368,0.21461163694413216,0.2443672526557846
0.27288609270380043,0.3331898021993899,0.5513467691639511,0.30267435353926464,0.2375989903406437,0.028916544174256178,0.01793134775775906,0.013144560644742521,0.036673196061479604,0.06882084121650031,0.33543422710148324,0.18832820535743025,0.2285415162963383,0.163718844268429,0.21372701934833377,0.2426532482151836
0.2721815208802718,0.32705435348393075,0.5499838004793967,0.2980152339809308,0.23826577259211915,0.02857366811140744,0.017656709298357644,0.013066869703160306,0.03692189930699662,0.06767440984136477,0.3289574681248796,0.1858996735287381,0.22600266376062372,0.16168298601864214,0.21291511566007168,0.24087611458582636
0.27135333043088034,0.3208683842354343,0.548454622998896,0.29342789972870037,0.2389045916829377,0.02824882170974535,0.01739698704288271,0.012988378469122555,0.03715088084547391,0.06656401480624634,0.3224745734900912,0.18357206729147113,0.223413073960356,0.1596179060817301,0.2121730766748449,0.23903679165513061
0.27040479520881616,0.31464018676891825,0.5467593617655963,0.28891571312934416,0.23951467456781522,0.027943150876428045,0.01715193376888695,0.012909383699023924,0.037359287313682064,0.06548991293607606,0.3159917659071038,0.18134680913023277,0.2207755160262148,0.15752506903933128,0.21149817149688377,0.2371362187448137
0.2693395144682179,0.3083777749261446,0.5448978961688883,0.28448175822179617,0.24009549296927699,0.0276577789502055,0.016921300001649833,0.012830174879991996,0.03754630775224033,0.06445237661328308,0.30951528795506966,0.17922502369602042,0.21809304118382633,0.15540618874993284,0.2108878068302008,0.2351754236908696
0.26816126172799193,0.3020887319210479,0.542870215198531,0.28012875150885397,0.24064675516892656,0.027393798621360536,0.016704835951670324,0.012751029809854271,0.03771120350003722,0.06345167308184735,0.30305129139492476,0.1772075769063952,0.21536899752563177,0.15326317292213887,0.2103395270580891,0.23315559768625385
0.2668738118347921,0.2957801453834278,0.5406767048185043,0.2758589588529473,0.24116838339949181,0.0271522640634022,0.01650229244002813,0.012672210759337192,0.037853333103580786,0.06248804070945432,0.29660571904398686,0.1752951042954057,0.21260702049847183,0.1510980529317392,0.2098509932957879,0.23107815415516791
0.2654807586976888,0.2894586653780747,0.5383183523863821,0.27167416410381273,0.24166047745486366,0.026934184125957602,0.01631342062451056,0.012593961362420029,0.03797217084610283,0.06156166345025096,0.2901841848652345,0.173488020940725,0.20981100109518483,0.14891290242211508,0.20941994049899926,0.22894477025711749
0.2639853672062143,0.2831306307927077,0.5357968576234251,0.2675757147645067,0.24212326527984657,0.026740517701543415,0.016137970397309225,0.01251650431492981,0.03806731776834105,0.06067264579052909,0.28379186809183227,0.1717865132767201,0.20698503438907737,0.1467097484806331,0.2090441127532659,0.22675741003509678
0.2623905331081037,0.2768021909815862,0.5331146448386885,0.2635646113706986,0.2425570414171696,0.026572171946274214,0.01597568739355357,0.01244003989331135,0.038138504395400195,0.059820994167703735,0.27743345954216575,0.17019051450626654,0.20413335155914003,0.14449048314002808,0.20872117799413067,0.22451832871794908
0.2606988764606822,0.27047939726475856,0.5302747766293932,0.25964159383990515,0.24296209428998408,0.026430002310000703,0.015826308625193873,0.012364745239262233,0.03818558478535744,0.05900661285994363,0.2711131877390202,0.16869967284844234,0.20126023891239062,0.14225679765348986,0.20844862484320584,0.2222300582458668
0.2589129064806319,0.2641682631880535,0.5272807747971094,0.2558072066263977,0.24333862339793755,0.026314812708270838,0.01568955683261817,0.012290774295621296,0.038208521953758165,0.05822931487037935,0.2648349009489233,0.1673133362948293,0.1983699476156578,0.1400101707101976,0.2082236627500258,0.21989537468584677
0.257035187093856,0.25787479421193005,0.524136359408332,0.25206183939675236,0.24368664761788014,0.02622735626873927,0.015565134386164097,0.012218258228179261,0.0382073651784369,0.057488838629581304,0.25860215931556735,0.1660305730165726,0.1954665979065798,0.13775191487119165,0.20804318089191165,0.21751724880975482
0.2550684782427548,0.25160498903131284,0.5208451214792426,0.24840574135116011,0.2440059060082761,0.02616833835528239,0.01545271941155973,0.012147306129983174,0.03818222012352404,0.056784862000078824,0.2524183142375694,0.1648502181479594,0.19255408527672951,0.1354832495444826,0.20790380312488133,0.2150987816865022
0.25301584864207677,0.24536481601649632,0.5174101823344742,0.2448390088073391,0.24429576683546764,0.026138421980949466,0.015351967078835327,0.01207800578152468,0.038133213112200325,0.05611701105943111,0.24628657159326697,0.16377092403103155,0.1896360110449688,0.1332053702354091,0.2078020061161597,0.21264312765612545
0.25088075688891737,0.23916016925115272,0.5138339792612011,0.24136154715913596,0.2445551887444685,0.02613823440556338,0.015262515832999682,0.012010424233372697,0.03806045470331114,0.05548486369362082,0.2402100392673902,0.16279120057708577,0.1867156693958683,0.13091950465487093,0.20773424755169725,0.21015340747398484
0.24866709914543023,0.2329968092941941,0.5101183114817358,0.23797300974300242,0.24478276379580047,0.026168373962320676,0.015183995698274465,0.011944607987830558,0.03796401671601201,0.05488794836886291,0.23419175989338575,0.1619094407258507,0.1837960957791641,0.12862695482909148,0.20769708279596472,0.20763261470967073
0.2463792229623584,0.2268802940980114,0.5062646101187678,0.23467272433624256,0.24497681509157962,0.026229416467093713,0.01511603643544381,0.011880582582601188,0.03784393650860998,0.054325738763356425,0.2282347300541537,0.16112392799447586,0.18088014382021253,0.12632912496637957,0.20768726504093854,0.20508351922355317
0.2440219081349482,0.22081590548921795,0.5022742759095082,0.23145964047713216,0.2451355060157666,0.026321920588786085,0.015058274767656026,0.01181835176465789,0.037700244969147735,0.0537976452100884,0.22234190739131424,0.16043282442155576,0.17797055897132247,0.12402753540145327,0.2077018247555276,0.2025085840513365
0.24160031672121104,0.2148085822339974,0.49814897610773123,0.22833233932075359,0.24525694476568408,0.026446431601740036,0.015010360337527931,0.011757897334623905,0.0375330023209003,0.05330300410900349,0.2165162071737371,0.1598341386960952,0.1750700390768133,0.12172382343355628,0.20773812524307975,0.1999099329381753
0.23911991545357417,0.20886288358641392,0.4938908667908659,0.22528911071876745,0.24533928137648725,0.02660348301729588,0.01497196010789006,0.011699180861297974,0.03734233071315011,0.05284106659686514,0.21076048988953613,0.15932567854748766,0.17218128103564054,0.11941973228443346,0.2077938922626442,0.19728938848274793
0.23658637469533692,0.20298300186918988,0.48950273006552036,0.22232806109526662,0.24538079436840476,0.02679359569696894,0.014942760983806968,0.011642147284132806,0.037128440261279455,0.0524109886612031,0.20507754137411455,0.1589050066483331,0.16930701323811737,0.11711708971653632,0.2078672168894961,0.19464855157908487
0.23400544880083354,0.1971728109600285,0.4849880207101721,0.21944721841325157,0.24537996418570795,0.02701727417917134,0.014922470510979087,0.011586729649303865,0.0368916475424077,0.05201182607349722,0.19947004689239153,0.15856943431825307,0.16645001391391265,0.11481777806754868,0.20795653200014388,0.1919888831530963
0.2313828432131688,0.1914359204915977,0.4803508220539818,0.21664462136506413,0.24533553076553996,0.027275000098981476,0.014910815590968183,0.01153285446360673,0.03663238597573686,0.05164253497771617,0.19394056047690322,0.15831606850776642,0.16361311594709874,0.11252369757745126,0.2080605638899364,0.18931177480187789
0.2287240755810976,0.1857757183758858,0.47559571604279793,0.21391838798620783,0.24524653288400625,0.027567223021493902,0.014907539242133564,0.011480447394222139,0.036351207955302285,0.051301973967777685,0.1884914707032377,0.15814188953650873,0.16079919908366314,0.11023672491688193,0.20817826150238755,0.1866186075592736
0.22603435726132753,0.1801953985134813,0.47072757717745634,0.21126675995539115,0.24511232737592137,0.027894351438967617,0.014912395521843298,0.01142943903074069,0.03604877902886582,0.05098890422526721,0.18312496397438666,0.15804382988471996,0.1580111707733911,0.10795866878220696,0.20830870651998137,0.18391079854053555
0.22331854935843617,0.1746979744632034,0.46575130404867604,0.2086881201048673,0.244932586901408,0.02825675010583996,0.014925142805837515,0.01137977039077177,0.03572586480466268,0.05070199065789255,0.17784298629536618,0.15801884061010585,0.15525193714922397,0.10569122431750302,0.2084510081077781,0.18118983568402403
0.22058121926502883,0.1692862805177411,0.46067151204514967,0.20618098205678162,0.24470727561387748,0.028654747530986537,0.014945535690618999,0.011331397833666103,0.03538331159630238,0.05043980932219387,0.1726472053613695,0.1580639400335263,0.15252436585235415,0.10343593237685753,0.20860418640527645,0.17845730118199804
0.2178267537912123,0.16396296214572634,0.4554922639317866,0.20374395234875387,0.24443660283707466,0.02908865037181758,0.014973316180081193,0.011284297050486641,0.03502202206909585,0.05020086214016735,0.16753898142076884,0.1581762404219383,0.14983124256044775,0.1011941589922421,0.20876705461009848,0.17571488445875896
0.215059472990479,0.15873045810985154,0.45021698041671004,0.20137566683747987,0.24412095564457442,0.029558759534955643,0.015008206469806997,0.011238465823380327,0.034642927318135154,0.04998359631092453,0.16251936379774606,0.15835294982457992,0.14717522316979512,0.09896710662753287,0.20893813040523646,0.1729643857068487
0.21228372515462657,0.1535909767546989,0.4448485941287006,0.19907470449618628,0.24376081201082747,0.030065385656409305,0.015049907132319042,0.011193925293667287,0.03424695688582442,0.04978642602623064,0.15758912022511484,0.1585913478802256,0.14455878362021288,0.09675584828614907,0.20911561999677444,0.17020771103635754
0.20950396102860255,0.14854647066729032,0.4393898363246429,0.1968394835926838,0.24335663692649298,0.03060886306513297,0.015098101989714839,0.011150719543574609,0.033835011046974735,0.04960775487540467,0.1527487846021247,0.15888873618141505,0.14198417444434358,0.0945613664968321,0.2092974822310438,0.16744686024490774
0.20672478618119924,0.1435986197616117,0.4338435171185955,0.19466816357431688,0.24290876450433574,0.03118956132561141,0.015152466571337803,0.01110891337845373,0.033407945646827766,0.049445997345850826,0.14799870587033412,0.1592423655199912,0.13945339799563736,0.09238458801456202,0.2094815324097563,0.1646839081010353
0.2039509913309528,0.1387488354926597,0.42821274757852357,0.19255860721987716,0.24241727493222653,0.03180789349034087,0.015212676647793928,0.01106858829008973,0.03296657705736919,0.04929959777266935,0.14333909206629966,0.15964934883716878,0.1369682217116909,0.09022641257926209,0.20966554690335312,0.1619209798811951
0.20118756123542872,0.13399828723843765,0.42250109504093086,0.19050843634198994,0.24188189816507963,0.03246432027408285,0.015278415565285728,0.011029836681814882,0.032511701319332925,0.049167045149341386,0.13877004879609992,0.16010658962549634,0.13453021685232075,0.08808773550696124,0.20984735639870333,0.15916022174199584
0.19843966347817293,0.12934793769327702,0.4167126670536032,0.18851514539054945,0.24130199447390274,0.033159349489017886,0.01534938009735149,0.010992754536266578,0.032044115675307246,0.04904688238079429,0.13429161146131885,0.16061077038334023,0.13214080176707643,0.08596946405206135,0.21002492628192515,0.15640376637436307
0.19571261910848137,0.12479857519294967,0.4108521234572503,0.18657621968265686,0.24067662604562012,0.03389353025186377,0.015425284584827278,0.010957433107750948,0.03156463648846884,0.04893770883173812,0.12990377068566614,0.16115841379066057,0.12980127894109392,0.08387252762835942,0.21019642302408323,0.15365369429993875
0.19301185758841133,0.12035083928590458,0.4049246200101489,0.18468923711925958,0.24000467692677957,0.03466744168680711,0.015505863194828029,0.010923951911674066,0.031074112488087096,0.048838175381123575,0.12560649054597922,0.16174598069392623,0.1275128636278484,0.08179788211101581,0.2103602657349667,0.15091199114916914
0.19034285886909774,0.1160052393174406,0.39893569042722654,0.18285194898044024,0.23928497575119775,0.03548167609525855,0.015590870193993177,0.010892376974696676,0.03057343332251885,0.048746971615813976,0.12139971939730297,0.16236996576902493,0.1252767035561875,0.0797465085622419,0.21051516228189,0.1481805013128094
0.18771108565077785,0.1117621661706127,0.3928910765693745,0.18106233646545447,0.23851640552992598,0.03633681683580971,0.015680078198625096,0.01086276590688184,0.0300635336219123,0.04866280525626549,0.11728339329223336,0.1630269756873499,0.12309388952901996,0.07771940683034863,0.21066012954946794,0.14546087870406169
0.1851219089802718,0.10762189763286624,0.3867965186538072,0.17931864086190477,0.23769799747478,0.03723341447964576,0.01577327443333135,0.010835176750953145,0.02954539295667923,0.04858437437446241,0.11325743222054895,0.1637137853340324,0.12096545706167772,0.07571758456496898,0.21079449756211516,0.1427545432576127
0.18258053031357557,0.1035845981189956,0.38065751869110453,0.1776193665220145,0.23682900634811943,0.03817197239008943,0.01587025509909463,0.010809676956706472,0.029020032217667417,0.0485103366180123,0.10932172962536423,0.16442736894744495,0.11889237952769498,0.07374204227048543,0.2109178973264475,0.140062666193877
0.18009190746769116,0.09965031367207959,0.37447911948026813,0.17596325712206246,0.23590896540046596,0.03915295256127065,0.01597081801997616,0.010786351088118047,0.028488507037202453,0.048439288783907304,0.10547613587464313,0.1651649045019232,0.11687555357751302,0.07179375508435594,0.21103023239908308,0.1373861985974543
0.17766070491963049,0.09581896328234348,0.3682657985253682,0.17434924691531478,0.23493771955306622,0.04017679921124579,0.016074753803345183,0.01076530692509929,0.027951898917510102,0.04836977171802932,0.10172043657004834,0.16592375114169353,0.1149157778613944,0.06987365201628752,0.211131634367515,0.1347259277546682
0.17529129187019962,0.09209032761155739,0.3620215425852851,0.17277638979772328,0.2339154360873491,0.041243969030988384,0.016181836649528866,0.010746679708190465,0.0274113047380169,0.04830029998327,0.0980543267479737,0.1667014009010217,0.11301372631303853,0.06798259341707444,0.21122240266378647,0.13208253803932135
0.17298778556066752,0.0884640361935635,0.35575003893742574,0.1712437699379679,0.23284259270420535,0.042354960682062265,0.01629181825750112,0.010730634374215611,0.02686782528152238,0.04822940210826713,0.09447738216106379,0.16749540723469342,0.11116991742825637,0.06612134822295732,0.21130292942166784,0.1294566674626476
0.1707541121564208,0.08493955642346059,0.3494548769624133,0.16975039844013187,0.2317199434041301,0.043510340828469954,0.016404428576900564,0.01071736573735296,0.026322553358861054,0.048155660064915874,0.09098903233019566,0.16830329397254612,0.10938468558907433,0.06429057652065996,0.21137361043879252,0.12684895818532033
0.16859406308212557,0.0815161920130634,0.34313971348662053,0.168295110939064,0.23054846320902697,0.04471076506364415,0.016519383031065874,0.010707096676232502,0.025776562030890616,0.04807774388643414,0.08758854787958763,0.1691224531059259,0.10765816941623556,0.062490826898224154,0.21143474370810633,0.1242600993618253
0.16651134073393892,0.07819309554072672,0.33680839442933086,0.16687650544084165,0.2293292732945704,0.045956992231111535,0.016636392368426695,0.01070007448690463,0.025230893399539187,0.047994439728003116,0.08427505270592126,0.16995005949412192,0.10599032690419075,0.060722551642299685,0.2114864207941299,0.12169086086322038
0.1645095931875739,0.07496928954124532,0.3304650309144504,0.16549295691787724,0.22806354862575617,0.04724989086960932,0.01675517217902083,0.010696565647946521,0.02468654958335611,0.047904669983670954,0.08104755539106333,0.17078304858376925,0.10438096749004985,0.05898613131052949,0.21152843633150553,0.11914211669910707
0.1625924379053769,0.07184368800740952,0.3241140303064718,0.16414269620266492,0.2267524106837109,0.04859043683482435,0.01687545105764399,0.010696849312791702,0.024144489395388644,0.04780750445477598,0.07790498555556438,0.17161817336685714,0.1028297854041647,0.05728189929774986,0.21156026345249054,0.11661485732132024
0.160763474787004,0.06881511529673981,0.3177600846944702,0.1628239086169622,0.22539680833204526,0.04997970154832809,0.016996977001497528,0.010701209892181924,0.02360563231481891,0.04770216199378872,0.07484622685041638,0.17245210391144108,0.10133638773642774,0.055610163244881626,0.21158111613381841,0.11411019042124838
0.1590262891984951,0.06588232226477912,0.31140812109505694,0.16153482313053455,0.22399740454577916,0.05141883078126112,0.01711952168181343,0.010709929114628503,0.023070866462299805,0.04758800249884967,0.07187014455811239,0.17328152730293092,0.09990031588413435,0.05397122289118856,0.21159006298055136,0.1116293303053465
0.1573844458484602,0.06304399966673856,0.30506321902087485,0.16027378392015515,0.2225545180828535,0.05290901437200626,0.017242882300032902,0.010723278531950849,0.02254105659277837,0.047464509584103025,0.06897560725072749,0.17410323234738495,0.09852105950731503,0.052365384082078616,0.21158614854111243,0.10917357642132157
0.15584147455583885,0.060298788964535145,0.2987305020370654,0.15903930213212758,0.22106815915388583,0.054451447775340264,0.017366880828394323,0.010741514805467143,0.02201705087798309,0.047331264676399955,0.06616150218482618,0.1749141753728148,0.09719806241045835,0.050792968762354535,0.21156850586236134,0.10674428208129501
0.15440084907219404,0.057645290740701974,0.29241501050019814,0.15783008654148567,0.21953813525089946,0.056047290499091025,0.01749136053986055,0.010764879821898604,0.021499686535335277,0.047187913669944875,0.06342674435152533,0.1757115242472264,0.09593072009302357,0.04925432090541076,0.21153645657696635,0.10434281485956613
0.1530659601860074,0.05508207095483157,0.28612156285971185,0.15664505269627618,0.21796417504129906,0.057697637035809914,0.017616179849649298,0.010793604659231001,0.020989794372560988,0.04703412759032519,0.060770279335077275,0.1764926785934446,0.09471836905480835,0.047749808448741306,0.211489595049467,0.10197051050582952
0.15184008435226712,0.05260766528506088,0.2798546225581751,0.15548331100023835,0.21634604315510536,0.05940351781891118,0.017741203615565953,0.010827914507898207,0.020488202319696208,0.04686956110708373,0.05819108035526354,0.17725526509630293,0.09356026829399222,0.046279821421699695,0.21142785350197263,0.0996286224885052
0.15072634906476437,0.05022058178147395,0.27361821352553123,0.15434413499044408,0.21468363901667162,0.06116592938026351,0.017866292171250728,0.010868032719199686,0.019995738015819896,0.0466938208403498,0.055688140068804126,0.17799710774515537,0.09245557378189438,0.04484476655950517,0.2113515455863315,0.0973182747744034
0.1497276961289008,0.04791930202639808,0.26741592799261715,0.15322691178156198,0.21297707624834208,0.06298587651840945,0.0179912897528917,0.010914183569710585,0.01951323051012427,0.0465064602444259,0.05326045787508554,0.17871617381223828,0.09140331002218409,0.043445058795122324,0.2112613865480823,0.09504043716107868
0.14884684390781217,0.04570228095537839,0.26125101610208895,0.15213107725428304,0.21122673977535586,0.06486441263814294,0.018116017250243165,0.01096659374643722,0.019041511128947967,0.04630700415355635,0.05090702360538741,0.17941049731284778,0.09040235144982335,0.042081110105229635,0.21115848891170988,0.09279593827350323
0.14808625395867514,0.04356794544925504,0.2551265028511025,0.1510560390462222,0.20943331851218552,0.06680267333723207,0.018240274227536036,0.01102549262161005,0.01858141355478016,0.04609498755198625,0.0486267985677381,0.18007808260230354,0.0894514282709445,0.040753316255774184,0.21104433347343227,0.09058550615317783
0.14744811616373674,0.04151469176884851,0.24904529271192527,0.150001090748176,0.2075978123844936,0.0688019013332321,0.018363849219626714,0.011091111439986827,0.01813377316179228,0.045869993304866415,0.046418694968811694,0.1807167957619278,0.08854915656209283,0.03946204204470507,0.21092071627859837,0.08840981434829924
0.14693436133676227,0.03954088187482922,0.2430102514752534,0.1489653321314181,0.20572151340233769,0.07086346124738593,0.0184865330428099,0.011163681583115346,0.01769942565587665,0.0456316835879552,0.04428155750559509,0.18132427328193249,0.08769407888340187,0.03820760582387442,0.21078967314457397,0.08626952150813273
0.1465466912958879,0.037644838660489455,0.23702426450257613,0.147947632590301,0.20380596150653452,0.07298884327160322,0.01860813138953652,0.011243432102899908,0.017279205075319017,0.04537982389228125,0.04221415638407908,0.18189789916856552,0.08688470412029575,0.03699026639321058,0.21065338412562423,0.08416530178334757
0.1462866112507955,0.03582484012669183,0.23109027157364587,0.14694666231091033,0.2018528769141118,0.07517965530602323,0.01872847540627619,0.01133058673061213,0.016873941220312133,0.04511429881936767,0.040215197745080304,0.18243487057181068,0.08611954244990892,0.035810218982362266,0.2105140610648007,0.08209786539687101
0.14615545871467953,0.03407911254671165,0.22521127940678956,0.14596096712582673,0.19986407164151035,0.07743760373337699,0.01884742963952885,0.011425360567806067,0.01648445659387545,0.04483511924995682,0.038283345148647466,0.1829323131635048,0.08539713372081889,0.03466760371226701,0.2103738220042087,0.08006796921023547
0.146154428338381,0.032405824146458505,0.21939035368996473,0.14498904859775263,0.19784134373836804,0.07976446355692264,0.018964896839373416,0.011527956654069079,0.01611156295099765,0.044542420848231845,0.03641724200714747,0.18338739975446192,0.0847160677746194,0.03356252108721538,0.21023456711042202,0.07807641755917168
0.14628459234246577,0.030803083934145624,0.21363059307380047,0.1440294335619988,0.19578635847833673,0.0821620391385091,0.019080819246477313,0.011638562585503411,0.01575605756460025,0.04423645423757808,0.0346155307366081,0.18379745410262482,0.08407499555323757,0.032495047412192724,0.21009789849259491,0.07612405404743433
0.14654691627156446,0.029268949269208897,0.20793508803671426,0.14308073049650494,0.19370053759077838,0.08463211720501895,0.019195176151384694,0.011757347386147502,0.015418719324250428,0.043917567536358504,0.03287686803689031,0.18416003482936724,0.08347263021418219,0.03146524760520175,0.20996512800740963,0.07421174535087846
0.14694226983429015,0.027801439812644678,0.2023068678358285,0.1421416712233891,0.19158501020049662,0.08717641517737368,0.019307977696464095,0.011884459082504266,0.015100304784652765,0.04358618225729867,0.031199936141064654,0.18447299504020578,0.08290773790101892,0.030473185117527748,0.20983736477595039,0.07234035837979834
0.14747143262526086,0.026398553228606795,0.1967488389110526,0.14121113704668087,0.1894406607259533,0.08979653566209951,0.019419255081931975,0.01202002361493199,0.01480154473663966,0.043242763837868056,0.029583450039174394,0.18473451416676057,0.08237911826953627,0.029518928796335855,0.2097156327808202,0.0705107323662045
0.1481350945575684,0.025058280495697655,0.19126371812354653,0.14028816903127336,0.18726823888904007,0.09249394746337108,0.019529047527683814,0.012164145109156041,0.014523142795335573,0.042887788269799894,0.02802616083320157,0.18494309968327557,0.08188557533074042,0.02860255665434263,0.2096009824618194,0.06872364757863174
0.14893385086921618,0.02377862031617031,0.1858539662206937,0.13937196270141647,0.18506847660377707,0.09527000218435644,0.01963738710294774,0.012316906653908392,0.01426577699578004,0.042521707944484885,0.026526855512505186,0.1850975576630666,0.08142587961865798,0.027724156645000535,0.20949458571026602,0.06697979516968465
0.14986819161043438,0.022557592234855855,0.18052173746031333,0.13846184795923194,0.18284218917787698,0.09812597059644722,0.019744285719731497,0.012478370784892855,0.014030103365707156,0.04214492569214208,0.025084353547813874,0.1851969325731376,0.08099872545659417,0.026883824672267888,0.2093978115765354,0.06527975937478626
0.15093848557490064,0.021393248081075792,0.17526887085320106,0.13755725547533226,0.18059035664940853,0.10106307895588974,0.019849731779756626,0.012648579451778838,0.013816759824246724,0.041757789493997506,0.023697500784210897,0.1852404181918461,0.08060269694879864,0.026081660184742415,0.20931228077487785,0.0636240223278981
0.15214495871056108,0.02028368136928471,0.1700969296955339,0.13665767117126065,0.17831418248542058,0.1040825379117641,0.019953699504186788,0.012827553479708445,0.013626369751995833,0.04136060977469763,0.022365161168292354,0.18522724299863902,0.080236263674792,0.02531775980778261,0.20923989788803937,0.06201298748105285
0.15348766713776857,0.01922703433784919,0.16500726462359863,0.13576258069044247,0.1760151278145767,0.10718556262163674,0.020056165346885865,0.013015291540808601,0.013459545210854311,0.04095368688655861,0.02108620687223854,0.1851565391210136,0.07989781228300513,0.024592209547730007,0.20918286100458727,0.06044700805605895
0.15496646501541597,0.018221502368877845,0.16000107402647198,0.13487140594087632,0.17369492037829276,0.11037338308018359,0.020157124661419487,0.0132117687892451,0.013316889867323998,0.04053733673842397,0.019859507379684088,0.18502722990011605,0.07958569726712635,0.02390507615399922,0.20914364932792837,0.058926411557929693
0.15658096849841807,0.017265335612760314,0.15507945346442678,0.13398343706731625,0.1713555384233711,0.11364724408436142,0.02025660591494894,0.013416935748332746,0.013199001686159709,0.04011191061500293,0.018683918077919436,0.18483799892367128,0.07929829271804109,0.02325639824371005,0.20912499004428917,0.05745151798306204
0.15833052359983443,0.016356837735437998,0.15024343355153524,0.13309777392296412,0.16899917078243132,0.11700839469235437,0.02035468166598548,0.013630718269524217,0.013106475464860377,0.03967780862165083,0.017558270314531346,0.1845873669122673,0.07903403816842414,0.022646178488342918,0.20912980639806608,0.05602265131911376
0.16021419460931652,0.015494361810007243,0.14549400620781103,0.13221330622950347,0.16662815535632275,0.12045806747033239,0.02045147566727347,0.013853018800021414,0.013039905272478074,0.03923548650371869,0.016481367676617367,0.1842738290674273,0.07879147650662695,0.02207437955461321,0.20916114947331457,0.05464014423458701
0.1622307821282638,0.014676303481929985,0.1408321396004537,0.13132874720461649,0.16424489908699025,0.12399744825034575,0.020547165635518744,0.01408371846941984,0.012999886838443712,0.03878545590325027,0.015451991437001308,0.18389599444455276,0.078569282245933,0.0215409254845057,0.2092221166029708,0.05330433614809661
0.16437886009630964,0.013901091643358171,0.13625878246449344,0.130442699156814,0.1618517832546899,0.12762763753469886,0.020641981437712034,0.014322679477721891,0.012987019909666947,0.038328278414689464,0.01446891167965504,0.18345270468653127,0.0783662788274597,0.021045706441844038,0.20931575961303012,0.052015565139712255
0.16665681702791021,0.013167176951406451,0.1317748588115622,0.12955372280248706,0.1594510625121314,0.13134960506732463,0.02073619866930457,0.01456974754433816,0.013001910559288371,0.03786455407260533,0.013530898832122048,0.18294312637759175,0.07818144409301162,0.020588583287659803,0.20944498625465202,0.05077415441027897
0.16906289569935976,0.012473018612564106,0.12738125429491556,0.12866040008501495,0.15704478465394503,0.13516414142235267,0.020830127831315885,0.014824754253354517,0.01304517339100995,0.03739490513739934,0.012636733517231396,0.1823668126054536,0.07801390356729859,0.020169390251331965,0.2096124615561777,0.04958039420110478
0.1715952297598458,0.011817071512304843,0.12307879569458684,0.1277613888596339,0.15463477353056548,0.13907181834794266,0.020924099539902707,0.01508751909269388,0.013117433542311867,0.03691995623095006,0.011785214500631457,0.18172373090173768,0.0778629117136195,0.0197879355039762,0.20982053090730782,0.04843452092660576
0.1742518756442381,0.011197779450935464,0.11886822511614303,0.12685546796546185,0.15222268720454296,0.14307297448564846,0.021018446411275357,0.015357850952608606,0.01321932835195988,0.036440312006939646,0.010975164681577925,0.18101425647068406,0.0777278218483127,0.019443999825361682,0.21007119898810242,0.047336699495872395
0.17703083811893877,0.01061357946996087,0.11475017055948128,0.12594157138934509,0.14981011393157043,0.14716772949360898,0.02111348507585165,0.015635548827608085,0.013351508525929572,0.035956535829909195,0.010205435127614458,0.18023913140759373,0.07760804589166229,0.019137333737534387,0.2103661731048363,0.04628701949495029
0.17993008780601083,0.010062914977126268,0.11072511451217726,0.1250188104451507,0.14739866542433325,0.15135601064887722,0.021209507341874365,0.015920401460721316,0.013514638614850449,0.035469137817341775,0.00947490720112191,0.1793993923403214,0.07750300557234817,0.018867654372796944,0.2107069389695244,0.04528550971238051
0.18294756911424132,0.009544251409127286,0.10679336494528945,0.12408648315566473,0.14499005303895257,0.1556375757147692,0.021306787101608226,0.016212185684408777,0.013709396608553274,0.03497857877545914,0.00878249286794576,0.17849627049341465,0.0774120783984624,0.018634644641409213,0.21109483570284057,0.04433216281076605
0.18608119716609814,0.00905609076925084,0.10295503988248418,0.1231440703380586,0.14258614415509865,0.16001202585387692,0.021405598139504763,0.016510663251572164,0.013936472461758515,0.03448528574766325,0.008127133316486871,0.17753106948225128,0.07733455110612707,0.018437956172919025,0.2115311194061232,0.043426960100254375
0.1893288425513759,0.008596984073752721,0.09921007585198491,0.12219121825883487,0.14018899700194504,0.16447880665871598,0.02150623375285077,0.016815576014145954,0.014196565390460004,0.03398966952918103,0.00750779605078786,0.1765050281545903,0.07726960466935684,0.018277214435162146,0.21201701427846972,0.042569892678802644
0.1926883030630154,0.008165541349079292,0.09555825600631399,0.12122770813464573,0.1378008732475483,0.16903719591236155,0.02160902386100366,0.017126640525932237,0.014490379820634228,0.03349213872100339,0.006923470653979919,0.17541919616194965,0.07721634176362206,0.01815202363664569,0.2125537506828994,0.04176097819309256
0.19615726197553196,0.00776043891777255,0.09199924386972255,0.12025341319885996,0.13542422876296595,0.1736862773921468,0.02171434846159463,0.01744354568701033,0.01481861992761181,0.032993109009997114,0.006373163449110488,0.1742743830677014,0.07717383843463609,0.018061970367962425,0.21314258996020205,0.04100027269309043
0.1997332329047284,0.007380423815465004,0.08853261352220806,0.1192682445117611,0.13306168403445745,0.1784249008725121,0.02182264671116351,0.01776595647643595,0.015181982772520329,0.032493007369166306,0.00585589131228653,0.17307121474554463,0.07714119698822476,0.018006625679802674,0.21378483613924648,0.04028787728815818
0.20341349182725202,0.007024315289815834,0.08515787403325108,0.11827208714165424,0.13071597666721654,0.18325163549816337,0.02193442112357881,0.018093522479439995,0.015581150506484787,0.03199227114295136,0.005370674916969479,0.1718102528867191,0.0771175915613312,0.017985545403619907,0.21448183499106727,0.03962393955077394
0.20719500778030417,0.006691003439601453,0.0818744880193271,0.11726473079493924,0.1283898992454235,0.18816473910500237,0.02205023662541936,0.018425888136918263,0.01601678385655947,0.03149134225457337,0.004916532614029651,0.1704921163407647,0.07710230472085321,0.01799826864055535,0.21523496111775334,0.03900864984264555
0.2110744066733756,0.0063794451536599165,0.07868188442929462,0.11624581165546376,0.12608622643661893,0.19316216538599756,0.022170714470194527,0.01876270318008934,0.016489520597539994,0.030990657032207446,0.004492477946162874,0.1691175815280179,0.07709475384254706,0.01804431446707397,0.21604559395668707,0.03844223294515842
0.2150479962134032,0.006088657600651841,0.07557946586660114,0.11521479653944858,0.12380763698604533,0.1982416040418018,0.022296521278487698,0.019103632593625353,0.016999980376747704,0.030490632384777106,0.004097522701497311,0.16768765871923366,0.07709450646963237,0.018123177213657783,0.21691508372022977,0.03792493555166261
0.21911183743437931,0.005817709598025593,0.07256661092989904,0.11417102267935596,0.1215566476702058,0.20340053161211427,0.022428353723965573,0.019448365405993786,0.01754877323863053,0.029991650829269294,0.003730683401608615,0.16620364227626022,0.07710128431780695,0.01823432194438487,0.2178447083872438,0.03745701031584654
0.22326183039602093,0.00556571124945222,0.06964267218913456,0.11311376922983861,0.11933559065341041,0.20863625721715856,0.022566919611293288,0.019796621583972496,0.01813650877271094,0.029494051041246794,0.003390987955471533,0.16466713424077534,0.07711495605811992,0.018377183239570345,0.21883562292421244,0.03703869724376134
0.22749379775382422,0.005331802282610725,0.06680697050961677,0.1120423311218091,0.11714664726172193,0.21394595602181535,0.022712917753214875,0.020148156331756602,0.01876380471214719,0.028998130621423264,0.003077481122699171,0.16308004187820627,0.07713551945068609,0.018551168855221064,0.21988880194972116,0.03667020354811467
0.23180356104725577,0.00511513954288474,0.06405878649130231,0.11095608437482377,0.11499191136426168,0.21932668530927263,0.022867023567910205,0.020502761166845383,0.019431294643932576,0.02850415977751499,0.0027892285532994604,0.16144455087576304,0.07716307380183719,0.01875566630507617,0.2210049770768325,0.03635168611916022
0.23618700544565227,0.004914885534411372,0.06139734980590862,0.10985454058294851,0.11287345006265491,0.22477537874604753,0.02302988854147268,0.0208602612650019,0.02013963453046662,0.028012398527953526,0.0025253192887985153,0.15976307681570298,0.07719778405927148,0.01899004965813788,0.22218457033563288,0.03608324520832571
0.24064012876506613,0.004730202819980994,0.058821827193705795,0.10873738870806636,0.11079335065968518,0.23028881555104141,0.02320215355225021,0.021220508731759753,0.020889507795243196,0.02752311199446201,0.0022848666769987197,0.15803819827093313,0.07723983813182547,0.01925368538319183,0.22342763392426337,0.035864933673912906
0.2451590708546186,0.004560257617421133,0.05633130982975161,0.10760452281643533,0.10875375315489777,0.2358635628104756,0.023384467851770098,0.021583371661640153,0.021681628787015857,0.027036581957545994,0.002067007723354732,0.15627257538730835,0.07728939921424141,0.01954593684665139,0.22473382329476013,0.035696775300744533
0.24974011996005324,0.004404229590844783,0.05392480108030521,0.10645605495582773,0.1067568684067862,0.2414958959880125,0.02357750671707619,0.021948719078775297,0.022516744500758315,0.026553114031727634,0.0018709009719370577,0.15446885812522648,0.07734655796831764,0.019866167149453016,0.22610242081939697,0.03557878370565605
0.2543796934063638,0.004261322628492469,0.051601207792208524,0.10529231296558451,0.10480498290702343,0.24718172670459865,0.023781985410767915,0.022316404414914955,0.023395634494029902,0.026073040076028262,0.0016957230743318242,0.15262958844234964,0.07741129858818084,0.020213740090547168,0.22753239203846437,0.035510978842438846
0.2590742908890449,0.004130774280946786,0.0493593404306138,0.10411382361272989,0.10290045178019869,0.25291658896400865,0.023998668810995962,0.022686255938199194,0.024319108989118175,0.025596715736860967,0.0015406642621498584,0.1507571127383161,0.07748349570748012,0.0205880191627886,0.22902244753853662,0.03549340078951723
0.26382041979906556,0.004011863465959768,0.04719792361846881,0.10292128202620476,0.10104568211446424,0.25869570643323625,0.024228376309967017,0.023058082249954977,0.025288005191395603,0.025124513308011714,0.0014049231124334343,0.14885354376797033,0.07756294220044144,0.020988364614549067,0.2305711004541268,0.03552612061364102
0.26861449328994685,0.0039039162961596206,0.04511561189943644,0.10171550893191873,0.09924310902215706,0.264514108742955,0.024471981833032733,0.02343169093434377,0.026303181881492166,0.02465681036801559,0.0012877019589051734,0.14692079507363934,0.07764939020254892,0.021414128739092528,0.23217671804489268,0.035609248203795664
0.27345270317205006,0.003806309949707216,0.043111005183982094,0.10049739764984578,0.09749516691981679,0.27036675472275695,0.02473040908672573,0.023806912141066793,0.027365512354108296,0.02419397490182309,0.0011882054891150715,0.14496065851543685,0.0777425903340642,0.02186464967505095,0.2338375657639117,0.035742937058890874
0.27833088958816055,0.0037184745660730893,0.04118266221856943,0.09926785318068015,0.09580425841559825,0.2762486425167549,0.025004622388899993,0.024183621672702462,0.02847587578254046,0.02373635006308962,0.0011056436814991658,0.14297488336367273,0.07784232452695092,0.022339244106659703,0.2355518422264393,0.03592738608943123
0.2832444710128843,0.003639893208197016,0.03932911211227113,0.09802772596832673,0.09417272292458777,0.2821548967595525,0.025295613654158937,0.02456176153227917,0.029635147089673665,0.023284246650523255,0.0010392371419147624,0.140965241950718,0.07794843169164216,0.022837199333959543,0.23731770352698361,0.03616283855712759
0.28818848698870886,0.003570099987340915,0.0375488639994498,0.09677775119868574,0.0926028067357189,0.28808082377761224,0.025604386291401937,0.024941356634298965,0.030844185408505125,0.02283794952287285,0.0009882223725918408,0.13893358040697135,0.07806082575507318,0.023357765886056245,0.2391332754491204,0.036449578327886326
0.2931577273324225,0.0035086764970814117,0.035840414941364786,0.09551852068146437,0.09109663577224726,0.29402192730151555,0.02593193690822183,0.025322526502554857,0.03210382122347194,0.02239773408899676,0.0009518560298307449,0.1368818536512094,0.0781795058877188,0.023900153062514355,0.24099665227937134,0.03678792365387152
0.2981468854351753,0.003455246747295855,0.03420225617512187,0.09425050498701894,0.0896561919487167,0.2999738793583513,0.02627923739158912,0.025705490973966526,0.033414843053956575,0.02196388464915159,0.000929417963079328,0.134812144402715,0.0783045590032668,0.024463528666250553,0.24290588118312975,0.037178218730535346
0.3031507020863813,0.003409470826848552,0.03263287780834499,0.0929741078137512,0.08828329573938865,0.3059324437303263,0.026647223665823262,0.026090569191628846,0.034777987081062466,0.021536710306718804,0.0009202128792841392,0.1327266665497337,0.07843615485089804,0.025047020901088728,0.2448589314325654,0.03762082329579919
0.3081640889868011,0.0033710375541201342,0.031130772036623885,0.09168972379854722,0.08697960039272253,0.311893352436589,0.02703679653742558,0.026478171489906777,0.03619393445413024,0.021116557290121657,0.0009235705338020497,0.13062775373302346,0.07857453422066443,0.02564971951938977,0.24685364819424419,0.0381161005520648
0.3131822244245921,0.003339656396651735,0.029694434933399523,0.09039778780497634,0.08574659960563771,0.31785213890579084,0.027448832030324857,0.02686878413317151,0.03766331710677431,0.02070381711868021,0.0009388444109370219,0.12851783447337572,0.07871999094369557,0.02627067497154101,0.24888769108278158,0.03866440369847112
0.3182006145343966,0.003315048954141754,0.02832236683416618,0.08909881380646324,0.08458564257224037,0.3238039624111874,0.0278841938750501,0.027262947247901802,0.03918672806995965,0.020298930294291265,0.0009654089216825182,0.12639939557829824,0.07887284849012059,0.02690889539700353,0.2509584582549448,0.039266061361699106
0.32321511491908145,0.003296941150933441,0.02701307131429108,0.08779342253208865,0.08349794997658955,0.32974351921492534,0.028343743616750974,0.027661226663579803,0.04076473244565451,0.019902385460132663,0.0010026552117359056,0.12427493589717664,0.07903343205023705,0.027563342348790293,0.2530630030301729,0.03992136220950254
0.32822190913164345,0.003285059068687571,0.0257650527473463,0.08648235753144135,0.08248462960548529,0.3356651138047907,0.028828347203700564,0.028064184020924997,0.04239787766368773,0.019514714221469612,0.0010499857372603988,0.1221469127490316,0.07920203703193648,0.028232928139046477,0.25519797013661544,0.04063053981328488
0.33321744251058144,0.0032791305580058576,0.024576812432443078,0.08516648979242193,0.08154669235182321,0.3415628450547386,0.029338877890527602,0.028472358011758035,0.044086702534608,0.01913648205636063,0.0011068087807347218,0.1200176835167107,0.07937889492412022,0.02891651749151516,0.25735959047099277,0.04139376142899218
0.3381983120344675,0.003278890888460357,0.02344684329694134,0.08384681149137858,0.08068506912690916,0.34743081490618316,0.029876215522533937,0.028886269597527117,0.04583174459230319,0.01876827594194494,0.001172536053426239,0.11788945034335287,0.0795641390370972,0.029612932859584835,0.25954374319268475,0.04221112556106316
0.34316111509495706,0.0032840891298882946,0.02237362321553939,0.08252441985062031,0.07990062887453683,0.3532633132139876,0.030441242492291815,0.029306448602401256,0.04763354523381878,0.018410689474327547,0.001246585605953611,0.11576422845058669,0.07975777862378304,0.03032096088784589,0.2617460539281472,0.04308266873649083
0.34810226225946594,0.0032944936522300325,0.021355607036681625,0.08120049241003388,0.07919419751675652,0.35905496379953616,0.031034836863307436,0.029733468081942528,0.049492652215332195,0.018064307379769783,0.0013283883067751541,0.11364385597438245,0.07995969382224057,0.031039358336896153,0.26396199743592863,0.04400837674454664
0.3530177826895026,0.0033098964489639408,0.02039121890362256,0.07987625527708171,0.07856657730014042,0.3648008209543856,0.031657863324647754,0.030167976910416682,0.05140961915439642,0.01772969450579795,0.0014173948972152392,0.11153003678593575,0.0801696539213267,0.031766856589378556,0.2661869925698879,0.04498819612954425
0.3579032043824219,0.003330116223152338,0.019478849583091054,0.07855294609691238,0.07801856569004108,0.37049640831401237,0.032311162763390154,0.030610727350759356,0.053385001817127783,0.017407395327327435,0.001513082334719918,0.1094243920437362,0.08038734753542051,0.03250216397691956,0.26841648489866826,0.04602204469875089
0.3627535867957091,0.003355000227511277,0.01861686249718545,0.07723177357987528,0.07755097271229161,0.3761376952418519,0.03299554130931584,0.031062596177355236,0.05541935112854981,0.01709794396788246,0.001614959061845804,0.107328505528115,0.0806124134205833,0.03324396524246906,0.2706460124392005,0.047109820907616465
0.36756368333100525,0.0033844248994314443,0.017803606151643614,0.07591387558353993,0.07716463549300247,0.3817210094213439,0.03371175971238641,0.031524598228229346,0.05751320302452325,0.016801878422529688,0.0017225688785431096,0.1052439589678697,0.08084446831652278,0.03399091758103826,0.27287125028535797,0.048251412010066566
0.3723281469684922,0.0034182953757742308,0.017037428235331043,0.07460028282087508,0.07686042871392006,0.3872428880210737,0.03446052385604677,0.03199789163125297,0.05966706545118168,0.016519753578647024,0.00183549315085414,0.10317235653148919,0.08108313126280735,0.03474164287999707,0.27508803046817354,0.0494467008847202
