EMG01_right_gast_med,EMG02_right_glut_max,EMG03_left_gast_med,EMG04_left_glut_max,EMG05_right_glut_med,EMG06_right_bic_fem,EMG07_right_rect_fem,EMG08_right_vast_lat,EMG09_right_vast_med,EMG10_right_tens_fasc_lat,EMG11_left_glut_med,EMG12_left_bic_fem,EMG13_left_rect_fem,EMG14_left_vast_lat,EMG15_left_vast_med,EMG16_left_tens_fasc_lat
0.05038718184613907,-0.011709967144242293,0.010706600932720623,-0.0009258400748291151,-0.024495530570990506,0.0006368387911126396,0.03576181565108059,0.020090514588806292,0.12572247791891053,0.04209536024285044,-0.00046027865030863577,0.07274793643556761,-0.0005447318476818506,0.0067411414546151415,0.02879592112007655,0.02102980111600407
0.05666157763659891,-0.009739712062288372,0.013946102242891492,0.0022462904873715443,-0.02270080621428643,0.002231996684352384,0.036975315589183655,0.020554392895186003,0.12599240269360074,0.0437928634723393,0.002456374916570024,0.0812603315285085,0.0013010871129957775,0.008614591961868572,0.02892895058134386,0.021185062810009554
0.0630338025319775,-0.007795719978629811,0.017206088043762707,0.005383764910125416,-0.020927283099091785,0.0038125690112311176,0.03818908532881136,0.021016748139266798,0.1262685282237059,0.04547964857928427,0.005354184948056221,0.08982546006333099,0.003124970820313304,0.01046703944341637,0.02906150169420189,0.021336295101911013
0.0695009920258735,-0.005882087348782994,0.020484223789528366,0.008481110474937593,-0.019178261084706164,0.0053761157046342085,0.03940209535180385,0.021476717345755313,0.1265486824504,0.04715220726991857,0.008229076441349506,0.09843596166625547,0.004923935043933288,0.012296019647895066,0.029193239792186305,0.02148315250864904
0.07606022124547669,-0.004002621221657621,0.02377815576814478,0.011533127795498505,-0.017456791514317584,0.006920318818251475,0.040613268244149965,0.021933488914169803,0.12683078583324817,0.04880732239386645,0.011077111091943842,0.10708455575580485,0.006695086289664497,0.014099072702571127,0.029323853054485677,0.021625329438960048
0.08270852711809988,-0.002160747017327829,0.02708551974447483,0.014535007166698187,-0.015765609096160402,0.008443036719870175,0.04182148086812586,0.022386318847416885,0.12711295869059716,0.05044214599035179,0.013894551260749906,0.11576415504760003,0.008435670147863996,0.015873752504665793,0.029453060499397343,0.02176256657516008
0.0894429294976481,-0.00035945174746180415,0.030403957007563424,0.01748241743041381,-0.014107089303353073,0.009942346556915404,0.0430255851493252,0.02283453869695679,0.12739356572804686,0.05205423637890111,0.016677914069177176,0.12446796329019497,0.01014311535629575,0.017617655657814663,0.029580615958440665,0.021894654072127623
0.09626044908182564,0.0013987359831898348,0.03373113569481071,0.02037155686671297,-0.01248323079003453,0.011416569820117236,0.04422443525748474,0.02327755592800341,0.1276711916933624,0.053641558682976764,0.0194240093163703,0.1331895423845427,0.011815066747292682,0.01932845941016935,0.02970630810934708,0.02202143267697578
0.10315812041493186,0.0031117336355353993,0.03706477638262474,0.023199167871788204,-0.010895659310494165,0.012864282876212715,0.04541691313215991,0.023714847459624065,0.12794456121483758,0.05520245344905695,0.02212996153919107,0.14192284987258677,0.01344940596945583,0.02100396114447964,0.029829956667970503,0.022142793546932864
0.11013299838261793,0.004777865435741558,0.04040268078636041,0.0259625184204763,-0.0093456491819219,0.014284314621906026,0.04660194993030742,0.02414594730301638,0.1282124210422227,0.056735578854132135,0.024793216906259415,0.15066224849704096,0.015044259308097344,0.022642115945826522,0.029951404936235944,0.02225867730496419
0.11718215676759013,0.006395802172467951,0.04374276196217942,0.02865935443560466,-0.007834158049871025,0.015675733612645973,0.047778542438705156,0.02457042936651802,0.1284734270256926,0.05823983263859616,0.02741153600940128,0.15940249016464267,0.016597992434498526,0.024241069579927377,0.030070509018798344,0.02236907265252302
0.12430267765310114,0.007964486018385635,0.04708307410481597,0.03128782769916512,-0.006361870994631653,0.01703782687515577,0.04894576364555757,0.024987886518007388,0.12872610488622876,0.05971425983130086,0.029982973767527944,0.1681386767494131,0.018109192385918,0.025799184478980674,0.030187124111854,0.022474014611038397
0.13149163072855286,0.009483046149247798,0.05042183986225428,0.03384640446318297,-0.004929250278453746,0.018370072504636986,0.05010276685674245,0.02539790753192826,0.12896891541153788,0.061157956792724316,0.03250584787019717,0.1768662003426892,0.019576637602634474,0.02731505671728274,0.030301088370620087,0.022573582280148146
0.13874604186690676,0.010950717153632307,0.0537574730435062,0.03633376036407859,-0.0035365873147345604,0.019672108047191383,0.051248782965856304,0.02580005712522389,0.12920037521381345,0.06256999790993384,0.034978697420514314,0.1855806657348579,0.020999257383547378,0.028787522445870798,0.03041220649779607,0.02266789588027976
0.1460628507043297,0.012366786916010413,0.05708859468865615,0.0387486745307935,-0.002184053961466215,0.020943696422905098,0.05238311073067068,0.026193868613342428,0.12941917072643025,0.06394941850844277,0.037400233553504025,0.1942777978495483,0.022376082587727462,0.03021565286217937,0.030520239215843077,0.02275711275974624
0.15343885735033735,0.013730596776402147,0.060414040683282495,0.041089955672387546,-0.0008717489482434604,0.02218469087007871,0.05350510016614032,0.026578853338887577,0.12962424192593713,0.0652952569537845,0.039769283879510356,0.20295333672324833,0.023706193309922886,0.03159873744452646,0.030624904922728315,0.02284142201596673
0.16087066236839945,0.015041583160742254,0.0637328594139187,0.04335643516111907,0.000400269642171479,0.02339500014433827,0.05461412942720774,0.026954519427257982,0.12981483187740145,0.06660662165645086,0.042084732663219916,0.21160292252518498,0.024988680366559293,0.03293625582683725,0.030725892341800894,0.02292103741423795
0.16835461729971468,0.016299329276703082,0.06704429836508996,0.045547022270588454,0.0016319749759487116,0.02457455493411854,0.055709575810578074,0.027320390642989037,0.12999050077285765,0.0678827512922901,0.04434546383476771,0.220221977483905,0.026222641157436003,0.034227839309400335,0.03082287729999319,0.02299618836568789
0.17588681137376622,0.017503607287837383,0.07034777903008806,0.047660781850779314,0.0028233820037507646,0.02572327807613598,0.05679078174304932,0.0276760219739459,0.13015110553671258,0.06912305818208589,0.04655032591699121,0.22880561048681938,0.027407210802322418,0.03547322355776565,0.030915538708202187,0.023067108842391253
0.18346310171578464,0.018654406483263688,0.0736428600212524,0.049697003765690584,0.0039745641562554355,0.02684106553523419,0.057857021651002316,0.02802101134472288,0.13029674806700647,0.07032715358440325,0.04869813546983758,0.23734858545326581,0.02854160841471367,0.03667219449358975,0.031003572215414967,0.023134024257661583
0.19107916869400315,0.019751947287950974,0.07692918879848519,0.05165525502535197,0.005085666231666451,0.0279277843302997,0.05890748564412469,0.02835500701955241,0.13042769677611932,0.07149485457548951,0.05078771132292722,0.2458453659259425,0.029625180755809704,0.037824536450516213,0.0310867010285916,0.023197137794245874
0.19873057693879662,0.02079668165624796,0.08020644296362905,0.05353541306218679,0.006156911543112368,0.028983284047255895,0.059941291521984984,0.028677710427342407,0.13054428728126818,0.0726261730757997,0.05281791815287551,0.25429020249879036,0.030657437130086226,0.03893000556392329,0.031164683509457225,0.023256621364795976
0.20641283437551872,0.0217892809773215,0.08347426532813457,0.055337679552572946,0.007188604155438438,0.03000741269915372,0.060957516397842776,0.028988874317792974,0.13064681232652747,0.0737212883773339,0.05478770673585748,0.26267722726571974,0.03163807381102246,0.03998834443370553,0.031237317291208214,0.02331261712321264
0.21412144616431708,0.022730613086170862,0.08673220975131174,0.057062575104720764,0.008181127177469407,0.03100003137280868,0.061955232373685755,0.02928829633361693,0.13073542967376478,0.07478050520523374,0.05669614779778594,0.27100054309879723,0.03256698682941389,0.040999324528686855,0.03130443979641857,0.023365249213688058
0.22185196033866533,0.023621710322790864,0.08997972595072681,0.058710915993400205,0.00913493812822724,0.031961026685298474,0.06293353942955147,0.029575808256627766,0.13081013434561498,0.0758041999000988,0.05854245862738437,0.2792543051981894,0.03344427256125404,0.04196279264885583,0.03136592517631172,0.023414639908422668
0.2296000019495721,0.02446373080657347,0.09321619338074288,0.06028377487810978,0.010050562368935248,0.03289032123785569,0.06389159392379802,0.02985126134828321,0.13087081087608343,0.07679275771218881,0.06032602184270921,0.2874327921227033,0.03427021618286503,0.04287871084539386,0.03142167782438914,0.023460925445177448
0.23736129266645659,0.025257915194367257,0.09644098285390827,0.061782428060809066,0.01092858549900408,0.033787882230343264,0.06482863149648424,0.030114508352442795,0.13091732656534028,0.077746510047014,0.06204639592530085,0.2955304632925304,0.03504526868161601,0.0437471876593849,0.03147162273867795,0.0235042698611767
0.24513165306654702,0.026005541381090787,0.09965352132485923,0.06320829230303956,0.011769645473789716,0.0346537283527256,0.06574398336485615,0.03036538331855546,0.13094962160888585,0.07866569435285616,0.06370331735532245,0.30354199980109414,0.035770013686595145,0.044568499633046724,0.03151569311257347,0.02354487608759216
0.2529069852655757,0.02670788462738012,0.10285335046986177,0.0645628545144498,0.012574425031822116,0.03548793500884818,0.06663708523882601,0.03060368390702263,0.13096778069291642,0.07955045792683149,0.06529669439168126,0.31146232532447565,0.036445125882443315,0.04534310255543693,0.031553815620972044,0.02358299367564904
0.2606832341011009,0.027366199047215337,0.10604017635822245,0.06584760018657324,0.013343644835193779,0.03629063785978544,0.0675074783556884,0.030829165291827488,0.13097208389753193,0.08040089886878798,0.0668265927393281,0.3192866040159652,0.03707132316317111,0.04607163241277327,0.03158589393360568,0.023618922677808126
0.2684563257672556,0.027981728577883634,0.10921390775885541,0.06706395691902577,0.014078057545758247,0.03706203460777066,0.06835480242605005,0.0310415500567573,0.13096303590852557,0.08121711842696153,0.06829321352994228,0.327010212558295,0.03764931981759404,0.0467548964928589,0.031611792740567066,0.023653013396776813
0.27622208360064027,0.0285557343657616,0.11237468097672869,0.06821327698515255,0.014778442895534465,0.037802384885298884,0.06917878058477696,0.031240547466154088,0.13094137362755257,0.08199926748990284,0.06969686421069783,0.3346286840447318,0.03817979904326984,0.04739385551821368,0.03163132855150237,0.023685661929959127
0.2839761216091564,0.02908952151580382,0.11552286955966579,0.06929686385977842,0.015445603671902352,0.03851200807369413,0.06997919673871113,0.031425873486779735,0.13090805324411162,0.0827475823414727,0.07103792308739197,0.34213762208573784,0.03866341975763092,0.04798959803324107,0.031644272750660445,0.023717301664000923
0.29171372318114613,0.029584459321220325,0.11865907774217455,0.07031601934994493,0.016080362433735874,0.03919127885615403,0.07075586598410026,0.031597268261120436,0.1308642186558402,0.0834624084145035,0.07231679840215799,0.34953258448899766,0.03910084949967168,0.048543308532517135,0.03165036451594344,0.02374839109886108
0.2994297389568881,0.03004199463268625,0.12178411708259076,0.07127208774907112,0.016683558707087338,0.03984062031517943,0.07150859901905317,0.03175451028994631,0.1308111537728586,0.0841442113514284,0.07353388294176218,0.3568089370184962,0.03949280322100292,0.04905623098163863,0.03164932680937162,0.023779398588938426
0.3071185611651761,0.030463658364709992,0.12489896638344353,0.07216648954436694,0.01725604637812405,0.040460494414729146,0.07223716168919532,0.03189742670603638,0.13075022170770223,0.08479357524919293,0.07468950731389067,0.36396168431943,0.03984007642028555,0.049529629447326466,0.03164088143705293,0.02381078476698292
0.31477419659484346,0.03085106544513821,0.1280047156409146,0.07300074417468147,0.01779869100356168,0.041051389763108605,0.07294123533080399,0.03202589917111745,0.13068279413608302,0.08541118850711796,0.07578390341326673,0.3709853196235671,0.04014356976551743,0.049964747524334684,0.03162476216735853,0.02384298575051979
0.3223903984893814,0.031205908781265366,0.13110249542376087,0.07377648193027217,0.018312366789478993,0.04161380663126083,0.07362039372438542,0.03213986509886046,0.13061017422471907,0.08599781818885764,0.07681719586812999,0.3778737771335325,0.04040430446116879,0.050362772485580874,0.03160072558021592,0.023876404718228966
0.3299608102066272,0.03152994803441487,0.13419339370997888,0.0744954456222578,0.018797953041100796,0.0421482392988663,0.0742741105210439,0.032239314091870655,0.13053352208403224,0.08655427423609921,0.0777894261976281,0.3846205304286962,0.040623428140555785,0.050724818161676455,0.03156855940374673,0.023911416970295436
0.3374791018930872,0.03182499415861286,0.13727837049506963,0.07515948310064331,0.019256329951017906,0.04265515591251643,0.0749017912551085,0.032324279672861965,0.13045380623151961,0.08708136521953934,0.0787005945135224,0.39121878329314375,0.040802211568385274,0.05105193452423429,0.031528088179984745,0.023948383702591204
0.3449390936307588,0.03209289076516318,0.1403582010179033,0.07577053204494509,0.019688373663438445,0.04313497745662669,0.07550281319042645,0.03239482658194336,0.13037180466705336,0.08757984757366082,0.07955070288948332,0.3976616795637824,0.04094203689457393,0.051345132987854675,0.03147917618579834,0.02398766640073692
0.35233485854812846,0.03233549342340126,0.14343347982239435,0.0763305986772821,0.020094950620144044,0.043588062021049236,0.07607656320733015,0.03245103409531619,0.1302881497326647,0.08805037608055755,0.08033979493975009,0.4039425018982167,0.04104437858336075,0.0516054123246652,0.031421727615374144,0.024029638178267684
0.3596607997069047,0.032554648001093804,0.14650468056763893,0.07684173214944907,0.020476911253767088,0.04401470309767838,0.0766224711757252,0.032492975988014004,0.13020338820164065,0.08849347601804677,0.0810679904535851,0.4100548497012331,0.04111077843281981,0.051833779986587294,0.03135568410409625,0.024074691259595903
0.3669116951919369,0.03275216979218277,0.1495722374174635,0.07730599633648814,0.020835083141210946,0.04441514355819989,0.07714003784877309,0.03252069940148056,0.13011803631369026,0.08890955376575962,0.0817355140282034,0.41599278651312394,0.041142816287908,0.052031268686260866,0.031281019738341354,0.024123240234260455
0.37408270673989685,0.03292982779197005,0.15263662287110877,0.07772544064058101,0.02117026406009284,0.044789597850880006,0.077628856510806,0.03253420964903664,0.1300326243410259,0.08929893695055621,0.08234271676864273,0.42175094772563965,0.04114207813165696,0.05219894833760729,0.031197733750247664,0.02417572094467437
0.38116934842414,0.03308933988635683,0.15569841367758558,0.07810207118799148,0.02148321656903412,0.045138275135910885,0.07808862782208054,0.032533469761246034,0.1299477299175234,0.08966192244027667,0.08289009027835527,0.4273246005696303,0.04111012419770933,0.052337933617198795,0.031105841140288217,0.024232585112225074
0.3881674133351511,0.03323237927899997,0.15875834149114285,0.07843782351115819,0.02177466654516241,0.0454614007498167,0.07851916751221846,0.032518415378219444,0.12986399977637378,0.08999882017580327,0.08337827234808429,0.4327096499010965,0.04104846408854973,0.05244938751674602,0.031005361503553597,0.02429429104232585
0.39507285780996704,0.033360585488455594,0.16181732544321492,0.07873453747475136,0.02204530626550599,0.04575923517689264,0.07892040677572319,0.0324889766325499,0.12978215991620815,0.09030998980965851,0.08380804396071288,0.43790258535727394,0.04095854920469213,0.052534521315480864,0.030896306358697126,0.024361290964630158
0.4018816445085316,0.033475573810379126,0.1648764844736928,0.07899393485687746,0.022295799948509568,0.04603208974288687,0.07929238541090688,0.032445099578488804,0.12970301454497413,0.09059586894874767,0.0841803174629971,0.4429003678883944,0.04084178456310978,0.05259459141352721,0.03077866529279726,0.024434016615189517
0.4085895474376761,0.03357894151335355,0.16793712806065678,0.0792176010014318,0.022526789662324135,0.04628033831964607,0.07963523791436915,0.032386764596617997,0.12962743443212338,0.09085699211403338,0.08449611600676962,0.44770025639202726,0.040699549608908356,0.052630893441484174,0.03065239192965182,0.02451286791459376
0.4151919364338867,0.033672270834843816,0.17100072488426252,0.07940697461699159,0.02273890096083196,0.04650442443848473,0.07994917289552822,0.032314001022373556,0.12955633553242785,0.09109399985902017,0.08475654462616163,0.4522995780587362,0.04053321756806738,0.05264475400799451,0.03051739339447621,0.024598211404157893
0.42168360725499626,0.03375712899520602,0.17406884992156726,0.07956334869090732,0.022932748204877798,0.04670486335221336,0.08023444631027352,0.032226897401050725,0.12949064893083415,0.09130763782286767,0.08496275358617902,0.4566954489342375,0.0403441701820635,0.052637520378185594,0.03037352878896078,0.024690389701465556
0.42805875565439,0.03383506557416975,0.17714311145303052,0.0796878795272599,0.023108939545425675,0.04688223875700377,0.08049132913180403,0.03212560695284251,0.12943128330088136,0.09149874582463263,0.08511589490294642,0.46088449299030415,0.04013380781131727,0.05261054830406502,0.0302206179629824,0.024789736087436367
0.43431112132694705,0.03390760769180547,0.1802250604222976,0.07978159857021917,0.023268081555460347,0.047037194079853295,0.08072007018326778,0.032010348031408876,0.1293790811737327,0.09166823742514431,0.08521707318743577,0.4648626949700637,0.03990355511219227,0.052565188164965186,0.030058455767899058,0.02489658832157439
0.4404342235450496,0.03397625350255991,0.18331608891240694,0.07984542472128424,0.02341078349724559,0.04717041844805934,0.08092085495404401,0.03188139956985611,0.12933477038573926,0.091817070685383,0.08526729748034005,0.46862549622219973,0.039654862662251635,0.05250276953185345,0.029886826927363178,0.02501129948064927
0.44642160633386113,0.034042464546120636,0.18641734338992466,0.07988017726430431,0.023537661201242878,0.047282627675284336,0.08109376601348864,0.0317390917195911,0.12929891389589232,0.09194621112840216,0.08526745339011453,0.4721680737645458,0.039389205026750855,0.05242458425096077,0.02970551992476972,0.02513424518240431
0.45226706211573,0.03410765750392087,0.1895296974318816,0.07988658979390179,0.02364934051413791,0.047374540814962014,0.08123876137563688,0.031583792090702174,0.1292718697638465,0.0920565881594833,0.08521831313362137,0.4754856668636624,0.0391080758266011,0.05233186815371355,0.029514339613914167,0.025265826750418007
0.45796482363382934,0.034173195887714745,0.1926538015466253,0.07986532531542553,0.023746460248757914,0.04744685303573504,0.08135568489408758,0.03141588818789092,0.12925378105162386,0.09214904697347379,0.08512057694680586,0.47857387936733203,0.03881298038904054,0.0522257829878461,0.029313118270016134,0.025406470092242704
0.4635097148488953,0.034240382837707514,0.1957901755563208,0.0798169924219775,0.02382967454180099,0.04750020846312427,0.08144430215797277,0.031235766794915507,0.129244602238365,0.09222430551424032,0.08497492502012798,0.4814289366322677,0.03850542654484912,0.052107404430665735,0.02910172481359339,0.025556620288489606
0.4688972528242102,0.034310457393677704,0.19893930201767124,0.07974216218011294,0.02389965450033622,0.047535183459956956,0.08150434477231444,0.031043792358892014,0.12924414563171582,0.09228293784699185,0.08478206711031337,0.4840478839311417,0.03818691408996815,0.05197772328032424,0.028880071961720807,0.025716732113525494
0.4741236943286673,0.03438459533732336,0.20210170460737184,0.07964138509535415,0.023957088999164922,0.04755229048968616,0.08153555346215659,0.03084029072253472,0.12925212937568806,0.09232539592280684,0.08454278615101093,0.4864287156410092,0.037858923365574164,0.05183765979957289,0.02864812109154822,0.025887256917440562
0.47918602293180895,0.03446391235442306,0.20527800718243863,0.07951520730510728,0.02400268448222136,0.04755199975391255,0.08153771750183375,0.03062554692912911,0.12926822070858335,0.09235205482549025,0.08425797432033362,0.48857042755664915,0.03752290333946714,0.05168808426717299,0.028405884640724608,0.026068627089659326
0.4840818746571483,0.034549466622159804,0.2084689700417486,0.07936418498037527,0.02403716362527724,0.047534766929645395,0.08151070925038663,0.0303998184899823,0.12929207335437873,0.0923632606431602,0.08392866026336648,0.49047298818741825,0.03718025950226338,0.0515298380029798,0.02815342591933641,0.02626124262274909
0.48880940270584083,0.03464225978475262,0.21167550092602558,0.07918889582539315,0.02406126273615321,0.04750105909346742,0.08145451263911259,0.030163355958470986,0.12932335805289852,0.0923593730780686,0.08355602646716337,0.49213722870178106,0.03683234238877598,0.05136375292889096,0.02789085626823414,0.026465467599673134
0.493367084256865,0.03474323629650884,0.21489863945279056,0.0789899465571557,0.024075727802908665,0.047451376385502515,0.08136924456777318,0.029916422917286255,0.12936178537830464,0.09234080134588869,0.08314141613416864,0.4935646550748153,0.03648043948112022,0.05119066894811352,0.027618329568241316,0.026681639806779872
0.49775347478281273,0.03485328123101849,0.21813951493468012,0.07876797532922189,0.024081309149038367,0.04738626848857147,0.08125516832492942,0.02965931269116899,0.1294071201622957,0.09230803215890543,0.08268632928419019,0.4947571897575061,0.03612577432293025,0.051011448425965895,0.027336034181542155,0.026910087742422734
0.5019669175834731,0.03497321700434909,0.2213992788117507,0.07852364823396903,0.024078754714922435,0.04730634521249988,0.0811126983548429,0.02939236122498347,0.12945918702741904,0.09226164888058158,0.08219240821948405,0.4957168536142237,0.03576951324294992,0.050826987100471926,0.027044182487612603,0.027151148017196366
0.506005246483917,0.035103800551481865,0.2246790141756777,0.07825764926624806,0.024068802052630782,0.047212280727627357,0.0809423959447599,0.029115955752620867,0.12951786674515867,0.09220234127115685,0.08166141289489139,0.4964454101117868,0.035412775734694785,0.050638220841661453,0.026742998258118635,0.027405180411326294
0.5098655942306369,0.035245723237427196,0.22797962601160585,0.07797066344484653,0.024052169191653074,0.047104811273871554,0.08074495569537726,0.02883053908043624,0.12958308335944504,0.09213090560183682,0.08109518712712364,0.4969440555872906,0.03505664483575866,0.050446127812418626,0.02643270219442961,0.027672579851402666
0.51354442307001,0.03539961426635876,0.2313017301828313,0.07766335314691773,0.024029544930700985,0.046984726468754165,0.08052118295354523,0.02853660950935573,0.12965478225434413,0.09204823528307378,0.08049561693623972,0.49721331560200654,0.03470217635754775,0.050251725755029515,0.026113496084353777,0.027953784717692227
0.517037757904324,0.03556604608432168,0.234645589699231,0.07733632809182013,0.024001580890712533,0.04685285463460338,0.08027196271642463,0.028234716612115615,0.12973289958953427,0.09195530251339042,0.07986458262122441,0.4972532211191482,0.03435040675777522,0.0500560643272723,0.025785548438883116,0.028249281067881077
0.5203414982567529,0.0357455400604166,0.2380111386168918,0.07699011163151089,0.023968889448319812,0.04671004284632629,0.07999822084514961,0.027925453256524665,0.1298173237722848,0.09185313179179622,0.07920390750664133,0.49706364404576964,0.03400235944290092,0.04986021262850491,0.025448988826020046,0.028559602554092827
0.5234517194693018,0.03593857171850836,0.24139807344057815,0.07662511390952101,0.023932049112119127,0.04655713265179743,0.07970087873724295,0.027609444413686384,0.12990784987247084,0.09174276643248319,0.07851531451696984,0.49664463868841785,0.03365904929476065,0.04966524227669343,0.025103915398548584,0.02888532600772076
0.5263649345312716,0.0361455752126531,0.24480596161954238,0.07624162857687991,0.023891614058257904,0.046394932623271025,0.07938080339315894,0.02728733340508254,0.13000412810961784,0.09162522946040393,0.07780041199100002,0.4959967313443849,0.03332148523827587,0.04947220660809485,0.02475041076508875,0.029227062861381676
0.5290783060130327,0.03636694676502008,0.24823433857118277,0.0758398582853879,0.023848123991928368,0.04622419263002896,0.07903876266744465,0.026959766319608128,0.13010561499794418,0.09150148043878423,0.07706071824826177,0.4951211464170459,0.032990670707252256,0.04928211675925743,0.024388559006129403,0.029585446759777447
0.5315897994592664,0.03660304681895346,0.2516827848187797,0.07541995589019583,0.023802112966381492,0.046045591829722725,0.0786754080971218,0.02662737536868402,0.130211550802737,0.09137237205744027,0.07629770790715168,0.49401996057322045,0.03266760192296244,0.04909591858436819,0.024018461116447374,0.029961117872927386
0.5338982718361939,0.03685420070097709,0.25515097897104916,0.07498206688978179,0.023754116917623296,0.04585974807679025,0.07829129809199646,0.026290763254125438,0.13032098035043124,0.09123861802014305,0.07551285882197005,0.4926961799049981,0.0323532639735399,0.04891448092447255,0.023640248433283342,0.030354704559108867
0.5360034911342707,0.0371206976330525,0.25863872334125737,0.07452636755831368,0.0237046797467587,0.0456672407204725,0.07788694586525913,0.02595049373124236,0.13043280393533063,0.09110078772235763,0.07470769199286816,0.4911537386321913,0.03204862476757158,0.048738603251374295,0.02325409368015155,0.03076680476106222
0.5379060858955242,0.03740278798933162,0.26214594022604104,0.07405309708614052,0.023654357864113858,0.04546863421996218,0.07746287005334955,0.02560709296001693,0.13054583493875874,0.09095932949578016,0.07388380321709344,0.4893974214014308,0.03175462702787092,0.04856903727626469,0.02286021934102194,0.031197973785225985
0.5396074261505043,0.037700678749100214,0.26567263818166864,0.07356258229043355,0.023603723193060477,0.04526449738257532,0.07701963969094323,0.025261059536588915,0.13065885412099446,0.09081460707576174,0.07304288562136474,0.4874327145339135,0.03147217858545872,0.04840651154094415,0.02245890317508952,0.0316487251878609
0.5411094398996026,0.038014527158691025,0.26921884898793674,0.07305525378239316,0.02355336471000142,0.045055417278676256,0.07655791206864143,0.024912876887644778,0.13077065850345126,0.09066693505150485,0.07218674261700099,0.4852655944977131,0.031202142239598694,0.04825175350944353,0.022050480784236545,0.03211954338200664
0.5424143717471678,0.03834443272334244,0.2727845373168218,0.07253165286173242,0.023503888663667052,0.04484200732232099,0.07607846228879532,0.024563024059863204,0.13088010328681177,0.0905166088868569,0.07131729123233041,0.48290226431236716,0.030945329084326043,0.04810550784914433,0.021635345249165213,0.03261090047237381
0.543524492493262,0.03869042920395027,0.2763694863667886,0.07199242883181017,0.023455917666135112,0.04462490931455603,0.0755822036711452,0.024211984002316285,0.1309861354176553,0.09036392901350054,0.07043655618137179,0.4803488504456067,0.030702499709445472,0.04796855026605874,0.021213943951618748,0.03312327198115383
0.5444417703190595,0.03905248120919748,0.2799731705698073,0.07143832686634391,0.023410088876092288,0.04440478956208042,0.07507019852807288,0.023860249312084393,0.13108781762984767,0.09020921877506916,0.06954665540478498,0.47761108976002353,0.03047437301547328,0.04784169645656347,0.020786772794973284,0.033657149865884015
0.5451675531150615,0.03943048869624163,0.2835946534839189,0.07087016698724886,0.02336705150017561,0.044182329490241305,0.07454365921117531,0.023508325535058962,0.1311843420422479,0.09005283625570729,0.06864977815116931,0.4746940940401082,0.030261638153727444,0.04772580594844085,0.020354368120072408,0.034213052368569336
0.5457023950439629,0.03982429709974349,0.28723256755519894,0.07028881511001571,0.023327463821115592,0.043958211449084975,0.07400393970805752,0.023156732218901067,0.13127503268431914,0.0898951802459002,0.06774815693916166,0.4716023118034719,0.030064965989144404,0.04762178081648512,0.019917296684331832,0.03479153037545368
0.5460461352715198,0.040233709043285666,0.2908851906837998,0.06969514745750921,0.023291989924325473,0.043733100649062696,0.07345251842289009,0.022806001999132533,0.13135933663836286,0.08973669077161668,0.06684403494206573,0.4683397050866773,0.0298850188620447,0.047530559461750735,0.01947614412737827,0.03539317011232917
0.5461981678536033,0.040658495942125276,0.2945505730465801,0.06909000991796817,0.023261296242097593,0.04350762434636022,0.07289097309023085,0.02245667805956025,0.13143680382236114,0.0895778447334733,0.0659396304592551,0.4649100259783451,0.029722458229532796,0.04745310582954055,0.019031502384117025,0.03601859214389997
0.54615776112742,0.04109840903509925,0.2982266648431694,0.06847417752546522,0.023236047972684325,0.04328235176775505,0.07232094903527696,0.02210931034335714,0.1315070557805842,0.08941914726872509,0.06503710048809702,0.46131708221037443,0.029577949856886204,0.047390394601899796,0.018583956525248687,0.036668446781093315
0.545924350018094,0.04155318936263636,0.30191142635821794,0.06784832834198395,0.023216905367129073,0.04305778309726113,0.071744122194743,0.021764450901441197,0.13156974418958572,0.0892611194630545,0.0641385098414655,0.45756495516798884,0.029452166336389567,0.04734339303006851,0.01813407263485542,0.037343406121987305
0.5454977821185941,0.042022576202726515,0.305602914692646,0.06721304647617085,0.023204519817075876,0.04283435371900079,0.07116215844423812,0.021422648752055885,0.13162450011416052,0.0891042830080508,0.06324581895734693,0.4536581639064943,0.029345786829729725,0.04731304016745702,0.017682390943270357,0.03804415305604386
0.5448785094985218,0.04250631348939348,0.3092993423602327,0.0665688513910731,0.023199529628883518,0.04261244917520317,0.07057667083745432,0.02108444459254664,0.1316708753500699,0.08894914233385126,0.0623608964253703,0.4496017711968989,0.029259494053638303,0.0473002246462391,0.017229427814642165,0.03877136764481959
0.5440677203277344,0.04300415377023957,0.31299910400422687,0.06591623667937778,0.02320255533893659,0.04239242154363989,0.06998918116952647,0.020750365655052738,0.13170827986556646,0.08879616465698989,0.06148554474275665,0.44540143009914296,0.029193968650014054,0.047305765394725884,0.016775684650235594,0.03952571135403955
0.5430674067005294,0.04351585931185291,0.3167007687280644,0.06525570600376705,0.023214194416103975,0.04217460232473972,0.06940110175803793,0.0204209209366641,0.13173593115468316,0.08864575828478367,0.06062152501203977,0.44106337197960127,0.029149881194677076,0.04733040433952232,0.016321658608815653,0.04030780965205196
0.5418803674209107,0.04404120003435661,0.3204030369140559,0.0645878025944854,0.023235015211951978,0.041959310702105346,0.06881374763707115,0.02009659696633601,0.13175284238217222,0.08849824942338651,0.059770575753261286,0.43659433915612345,0.029127882197318943,0.04737481557737791,0.015867852109995657,0.041118234735066754
0.5405101468661565,0.04457994804824857,0.3241046618771167,0.06391313148767816,0.023265550691936938,0.04174685688310243,0.06822836812873045,0.01977785420035753,0.13175785899156342,0.08835385765961518,0.05893442561030317,0.4320014673878108,0.029128590524229687,0.04743962409462005,0.01541478043452665,0.04195749351419644
0.5389609132964132,0.04513186867601021,0.3278043382146643,0.06323237402902505,0.023306294352619304,0.04153754050989616,0.06764618052532706,0.019465124070033313,0.1317497225379937,0.08821267127330569,0.05811480003986012,0.4272921251601393,0.029152582251125804,0.04752542504657177,0.01496297733692696,0.04282602647848826
0.5372372820419636,0.04569670796479224,0.33150056021127156,0.0625462945099799,0.02335770132808933,0.041331644409103176,0.06706839887421011,0.019158806643600413,0.1317271374317001,0.08807462818195894,0.05731342235739539,0.4224737180963016,0.029200385124911427,0.04763280039014928,0.014512998668839809,0.04372421676909345
0.5353440908073156,0.04627417683086217,0.3351914639910149,0.06185573913169593,0.023420194864403422,0.04112942420492129,0.06649625701456742,0.01885926881279116,0.13168883187987687,0.08793951255024014,0.056532009763979575,0.41755346781647035,0.029272482376192573,0.04776233245868046,0.014065424091479482,0.044652403393897526
0.5332861358257895,0.04686393261200166,0.33887470214387044,0.06116162778963142,0.023494175600882797,0.04093109454267422,0.06593102565574285,0.018566842875558973,0.1316336111862277,0.08780697058172861,0.05577226518047755,0.4125381844629216,0.029369322999189856,0.04791461419115321,0.01362085702928724,0.04561089395940292
0.5310678787382377,0.04746556248148094,0.34254742302289376,0.060464939427811955,0.023580031499905136,0.040736814214728106,0.06537402352779091,0.018281825483646676,0.13156040179157552,0.08767653763843741,0.055035865863401104,0.4074340914811054,0.029491333205142193,0.048090255852033546,0.013179923081451635,0.046599975546560604
0.5286931623961193,0.04807857799279961,0.3462063734163049,0.05976669191684116,0.02367814761743039,0.04054667623432067,0.06482662285139161,0.018004477272018066,0.13146828471555935,0.08754766791275824,0.054324449865410095,0.4022467900652754,0.02963892662624926,0.048289888197905945,0.012743267160637664,0.04761992339096252
0.5261650407553229,0.048702425761115414,0.34984806573313604,0.05906791755836049,0.023788915306347018,0.04036070914576358,0.06429024955775374,0.017735023640377812,0.131356517379126,0.0874197636216567,0.053639601431766236,0.39698138298735763,0.029812512779160014,0.04851416215940863,0.012311549667023988,0.04867100707427275
0.5234858203685688,0.04933650843506394,0.3534689475712682,0.05836963540858108,0.023912740422861782,0.040178888654794895,0.06376637883395517,0.017473656705443617,0.13122454313908197,0.08729220303981283,0.05298283639407412,0.39164267598640223,0.03001250355144884,0.04876374520781033,0.0118854420289839,0.04975349398180697
0.5206572787481977,0.04998020778632181,0.3570655499053808,0.05767282164596981,0.02405005011378955,0.040001152722443534,0.0632565266719796,0.01722053800372197,0.13107198823725164,0.0871643665628815,0.05235558853933896,0.38623537282099607,0.030239317567294807,0.04903931466229639,0.011465621948444818,0.05086764983154083
0.517680940418071,0.050632906650027495,0.36063460614080683,0.05697838142305352,0.02420129780079065,0.03982741486303071,0.06276223815973023,0.016975801633304928,0.1308986462451773,0.08703565989304202,0.051759198620358236,0.3807642359738251,0.030493382381626626,0.049341548264437436,0.011052768678888393,0.052013736133881036
0.5145583342592616,0.05129400879861181,0.36417313528481654,0.056287131315946856,0.02436696604485698,0.03965757387734419,0.06228507327115247,0.0167395577643525,0.13070445045828497,0.08690553337951012,0.051194908849333025,0.3752342088734126,0.03077513454060785,0.04967111239898735,0.01064755863774477,0.05319200450076407
0.511291211457203,0.05196295585435205,0.3676784838506402,0.05559980129072797,0.024547567066761172,0.03949151945235529,0.06182659089395167,0.01651189648597202,0.13048943504908125,0.0867734965375058,0.05066386368126573,0.36965049715737797,0.031085017626267607,0.05002864837450368,0.01025066161391946,0.054402687788383815
0.5078817180847137,0.05263924040675889,0.371148322784756,0.05491705350927547,0.024743640810791383,0.03932913328831998,0.06138833178256145,0.016292891908508734,0.13025368611630256,0.08663912681783542,0.0501671132056863,0.36401860817649956,0.031423478470757424,0.05041475719344505,0.00986273777733683,0.0556459881310711
0.5043325180182124,0.053322414599248365,0.37458059762899154,0.054239506777715066,0.024955750562259536,0.039170285658708316,0.06097180104758373,0.016082606395775884,0.12999728405644845,0.08650207180950108,0.04970561481947101,0.35834434956459865,0.0317909617784465,0.050829983240271465,0.009484435633447178,0.056922062004899056
0.500646863635416,0.05401209358319363,0.37797343221382584,0.05356775893886021,0.02518447625527873,0.039014827555485056,0.06057845069828542,0.015881094764663768,0.12972023892786255,0.08636204422939897,0.04928023235470409,0.3526337892161092,0.03218790343012061,0.05127479788096085,0.00911639099505359,0.05823100254791624
0.4968286135222216,0.05470795340240721,0.381324988333254,0.05290240524043956,0.025430405727188993,0.038862578809261604,0.06020966264958246,0.0156884082628263,0.1294224239228364,0.0862188092817995,0.048891735474217955,0.34689318036869776,0.03261472276211555,0.05174958652270316,0.008759226970308554,0.05957282049530525
0.49288219816629797,0.05540972306174364,0.3846332859718935,0.05224405244478278,0.025694124281265815,0.038713313470272834,0.059866732496698306,0.015504598120894898,0.12910352478551396,0.08607216424732139,0.04854080313584543,0.34112885663894293,0.03307181411444028,0.052254644819531536,0.008413554893237895,0.06094742897824341
0.48881253628039323,0.056117170742744006,0.38789599786753726,0.051593328598684075,0.02597620300248531,0.038566747244635796,0.05955085538813157,0.015329718475057236,0.1287630316118313,0.08592191047444797,0.04822803209806517,0.33534710277127056,0.03355953792693457,0.052790185633513176,0.008079976055761166,0.062354639952107375
0.4846249059294661,0.05683008434887359,0.3911102731145408,0.050950888518869614,0.026277186326270224,0.038422535117147646,0.05926311793684934,0.015163828469307096,0.1284002789912169,0.08576781828142584,0.04795394833965195,0.3295540075109601,0.03407821163320205,0.05335635177767829,0.0077590840418134965,0.06379417420864114
0.48032477598839385,0.05754824678402853,0.39427268726777887,0.05031741516582663,0.026597580648946132,0.03828028241273222,0.05900449964739544,0.015006993373871949,0.1280145110975814,0.08560958561557414,0.047719019174296134,0.3237553087392678,0.03462810056104804,0.053953229308774615,0.00745146741823827,0.06526567874862053
0.4759176045940938,0.05827140658134326,0.39737935974386784,0.049693617175478044,0.026937848263041828,0.03813956342381007,0.058775881929286414,0.014859284595840735,0.1276049480529814,0.08544679764369817,0.04752366490885719,0.3179562651669618,0.035209409881345334,0.054580859731415056,0.007157712506405785,0.0667687450726521
0.4714086121479964,0.05899924743753177,0.4004261663402031,0.04908022289451104,0.02729840934409216,0.037999940452448484,0.0585780596277656,0.014720778507683389,0.12717084555848904,0.08527890739994456,0.04736826927812212,0.31216161821222,0.03582228032101814,0.0552392509846925,0.006878405945095682,0.06830292597825302
0.4668025431798249,0.059731367803910494,0.40340895795705983,0.048477971322072745,0.027679648997082702,0.037860980392348725,0.05841175214882257,0.014591554076547188,0.1267115461878789,0.08510525292730897,0.04725318794361565,0.30637567030185725,0.03646678929966507,0.055928387104419906,0.0066141367601818424,0.06986775004258469
0.4621034701606445,0.0604672828680388,0.4063237507217152,0.04788760039986517,0.028081924640583816,0.03772226796120376,0.05827761370235005,0.014471689338583714,0.1262265209779658,0.08492510087056329,0.047178754430039556,0.30060242635256806,0.037142955484682695,0.056648236464013374,0.006365497680084831,0.07146273298009034
0.4573147365911621,0.061206447998380084,0.40916687790142764,0.04730983311711787,0.02850557177106743,0.037583414846472034,0.05817624275551884,0.014361256824278603,0.12571540022248712,0.08473769644059605,0.047145282985301,0.2948457343837521,0.037850743943855895,0.057398758494371295,0.006133085476695446,0.07308738510741396
0.4524390787553361,0.0619482914318363,0.41193509550840907,0.046745361909332976,0.028950907897847013,0.037444064216082235,0.05810819076022387,0.014260318099278245,0.12517799267724738,0.08454231003908315,0.04715306798312259,0.2891094028852873,0.03859007101307605,0.058179908769006104,0.005917500167380878,0.07474121422627332
0.4474788466236967,0.06269224677893709,0.41462563542934255,0.046194831832613706,0.02941823468656827,0.03730389026114653,0.05807397017918131,0.014168917855303921,0.12461429270542516,0.0843382779517918,0.04720237963467348,0.2833972921496478,0.03936080898335391,0.05899164231772632,0.005719342981689218,0.07642372334875289
0.44243622898101453,0.06343778223367366,0.4172362021724815,0.045658824056157364,0.02990783845770156,0.03716259267042874,0.058074061789008806,0.014087079095674755,0.12402447522567782,0.08412503532848,0.04729345593113547,0.27771337792214323,0.04016279073642093,0.059833915004091166,0.005539213131869986,0.07813440283736046
0.4373134493027328,0.06418442533789995,0.41976491181744857,0.045137844561467466,0.030419989278129545,0.03701988617544977,0.05810892118965681,0.014014801970998622,0.12340887866389329,0.08390213991538817,0.047426490896436094,0.2720617868784688,0.04099581445446638,0.06070668277325991,0.005377704422306677,0.07987271671092915
0.43211292722476347,0.06493178228131331,0.422210174364735,0.04463232417480674,0.030954938952384756,0.03687548553980488,0.05817898440209682,0.013952067104371255,0.1227679764440825,0.0836692853329955,0.04760161952360937,0.26644680455806435,0.04185964850925956,0.06160989855302477,0.005235404417226917,0.08163808307201681
0.4268374017020669,0.06567955088790996,0.42457052329565265,0.0441426301042791,0.031512918260775805,0.03672908658577152,0.05828467239422708,0.013898841231425568,0.12210233787699208,0.0834263030849233,0.04781890289532343,0.26087285741978117,0.042754036599249874,0.06254350657739284,0.005112898092312214,0.0834298488351589
0.42149001329768243,0.06642752664229232,0.42684439864980767,0.04366908270211011,0.03209413380203446,0.03658034617887065,0.0584263943421051,0.01385508269989238,0.12141257960839401,0.08317315292801568,0.0480783225304702,0.25534447160224816,0.043678703151451996,0.06350743390446957,0.005010774679213786,0.08524725945065577
0.41607434444005287,0.06717560133683663,0.429029899679012,0.04321197204218787,0.03269876477809775,0.03642886969185805,0.058604549412760096,0.013820745924564197,0.120699309064581,0.08290990171024272,0.04837979019669886,0.24986621173113926,0.04463335894016123,0.06450157892332445,0.004929635376241829,0.08708942965246214
0.410594417885889,0.06792375416527115,0.43112457039158847,0.042771572637392306,0.03332696001047021,0.036274214660273134,0.05881952684811966,0.013795784597911974,0.11996306157268885,0.08263669127157894,0.04872316847451596,0.24444260369305842,0.045617706799811704,0.0655257966916277,0.004870100880933691,0.08895533045672621
0.40505465498231363,0.06867203534112813,0.4331253346622684,0.042348155962481815,0.033978835405578105,0.036115909133903716,0.05907170413833928,0.0137801535157932,0.11920423794173311,0.0823536964816313,0.04910829409427919,0.23907804567292343,0.04663144722853404,0.06657988101910715,0.004832818383278675,0.09084380254356521
0.39945979659184205,0.0694205425721844,0.4350286325233731,0.04194200048901602,0.0346544719965629,0.03595347556992396,0.05936144309748614,0.013773808945514403,0.11842306320937902,0.08206107493449409,0.049535000773627144,0.23377671192048008,0.04767428359701505,0.06766354331143186,0.004818467670117649,0.09275358753792598
0.39381479068658437,0.07016939096585441,0.4368306714257376,0.041553398987083545,0.03535391458834525,0.03578645365691959,0.05968908369462943,0.013776707536683615,0.1176195898456166,0.0817589143150935,0.05000314073149176,0.22854246064660072,0.04874592659948989,0.0687763912237559,0.004827766023661184,0.09468336338821494
0.3881246515981439,0.07091867716751446,0.43852768386289137,0.04118266290516686,0.036077170929644936,0.03561441986439011,0.06005493554761749,0.013788803849820525,0.11679374340436596,0.0814471958407841,0.05051260406848971,0.2233787761794222,0.04984609751574243,0.06991791689034486,0.004861471648511589,0.09663177814628648
0.3823942966973916,0.07166843929954601,0.4401161490165526,0.040830123704434514,0.0368242112381495,0.03543700281423183,0.0604592670530746,0.013810046649507437,0.11594538588027811,0.08112579561086013,0.05106333524349836,0.21828877672550873,0.050974529800587774,0.07108750337517408,0.004920385429261988,0.09859748060933171
0.3766283668511887,0.07241862082438916,0.4415929674634231,0.040496131096478406,0.03759496782077579,0.0352538937466016,0.06090229220165599,0.013840374174230405,0.11507437736463304,0.08079452391960815,0.05165534594173539,0.2132752810664193,0.05213096848606165,0.0722844460248732,0.005005350900806493,0.10057914630230669
0.3708310499855794,0.0731690564677718,0.44295557990974377,0.04018104821270468,0.038389334466566345,0.03506485156391794,0.061384155209124554,0.013879708657490133,0.11418062997312475,0.08045318089842017,0.05228872371879837,0.2083408960844119,0.05331516687646119,0.07350797942386997,0.005117252401154403,0.10257549735877355
0.3650059638698291,0.0739194905122464,0.44420202331256475,0.03988524381745717,0.039207165250393944,0.0348697021745115,0.06190491328975715,0.013927951158865923,0.11326415242136245,0.0801016101859131,0.052963635915462264,0.2034880971331391,0.05452688004143455,0.07475730484189165,0.005257011466587683,0.10458531499851687
0.35915616222565544,0.07466961533662257,0.4453309205082011,0.03960908176321124,0.04004827237463017,0.03466833211107086,0.06246452062877293,0.013984979163203086,0.11232508391060086,0.07973974435970241,0.05368032846697909,0.19871929390963924,0.055765854670182066,0.07603161660596469,0.00542558161611526,0.10660744349962913
0.3532842591925704,0.07541911300877263,0.44634140248102233,0.039352907971793236,0.040912422694489255,0.034460676656906525,0.06306282146025094,0.014050648392489614,0.11136371632463207,0.07936764015980091,0.05443911937497885,0.19403688130612703,0.05703181494171309,0.07733012626836061,0.005623941751138671,0.10864078481600141
0.34739260186110194,0.0761676933397579,0.4472329655350743,0.03911703530703679,0.04179933262005099,0.034246702963134174,0.06369955739635536,0.014124797042569377,0.11038050411926899,0.07898550195301991,0.055240386765799766,0.189443275355914,0.05832444419134989,0.07865208339862255,0.005853088462295983,0.11068428329099181
0.3414834345629476,0.07691512703226029,0.448005268731457,0.038901727748729624,0.0427086611612412,0.03402638887034741,0.0643743841988171,0.014207249858311241,0.10937606169642589,0.07859369238596951,0.05608455162170565,0.18494093493483177,0.05964336230946992,0.07999679183735248,0.006114027584703652,0.11273690025502707
0.3355590380587539,0.07766127267753205,0.44865787987572,0.03870718872449167,0.04364000112227066,0.03379969840962203,0.06508689052366262,0.014297821020169134,0.10835114848152279,0.07819272972980419,0.056972055436358846,0.1805323703161575,0.06098810275261113,0.08136362031731535,0.006407765907425843,0.11479757865775878
0.32962184047237575,0.07840609651683869,0.44918999800673626,0.03853356034339403,0.044592870316755163,0.03356655880209139,0.06583661574469378,0.014396315634302076,0.10730664235036452,0.07778327200767507,0.05790333320821105,0.17622013999102215,0.06235810127982902,0.0827520064859755,0.006735305392132018,0.11686519826144777
0.3236744978913213,0.07914968408231661,0.4496002420188051,0.03838093467775689,0.04556670775088249,0.03332685077963201,0.0666230662751534,0.014502529689959765,0.10624350246332837,0.07736608858844099,0.05887878233987818,0.17200683735649877,0.06375270619761524,0.08416145355176606,0.007097642313943593,0.11893852244103666
0.31771994365550926,0.07989224306392849,0.44988662807525065,0.03824937106147074,0.046560878269175474,0.033080419637044424,0.06744572981632697,0.014616248428482215,0.10516272294395133,0.07694202049912449,0.059898731454857974,0.16789506894853665,0.06517120503314808,0.08559151901939795,0.007495770759070277,0.12101614651076395
0.3117614064492832,0.08063409700847834,0.4500467569602474,0.03813891358617759,0.04757468339362746,0.03282709918999763,0.06830408698976141,0.014737243153948212,0.10406527916976706,0.07651193122589522,0.060963421274616514,0.16388742587245986,0.06661285679656663,0.08704179526868992,0.007930687471538415,0.12309647435942299
0.305802398355743,0.08137566973730587,0.4500781019586568,0.038049606786291205,0.04860737428427255,0.03256673683731311,0.06919761985594723,0.014865266716989844,0.1029520687108633,0.07607665086852115,0.06207300924128372,0.15998644998173112,0.06807692483579167,0.08851188205478096,0.008403395827515422,0.12517774203381374
0.29984667499266543,0.08211746066417988,0.4499782899566086,0.03798150899359446,0.049658165056130577,0.032299215111934676,0.07012581688575956,0.015000049026175123,0.10182385671444993,0.07563692559396351,0.06322759470274389,0.1561945962020975,0.06956270884777542,0.09000135135052087,0.008914908321760758,0.12725807335886705
0.2938981706943099,0.08286001149589643,0.44974533652250814,0.03793470290761755,0.050726245868226064,0.03202446885175588,0.07108817403022274,0.01514129555261883,0.10068125083155628,0.0751933982896741,0.0644272519355056,0.15251419221982554,0.07106957469232368,0.09150970529743563,0.00946624750121398,0.12933554268104755
0.28796091240686716,0.08360386509632386,0.4493778234558284,0.03790930301013238,0.051810795159767185,0.03174249733584101,0.07208419162754369,0.015288690628551259,0.09952472257089537,0.07474663460460654,0.06567206283267484,0.14894739657395334,0.07259698061070285,0.09303633291529105,0.010058445361785046,0.13140823462413775
0.2820389165082266,0.08434951758081886,0.4488750099470919,0.03790545954804811,0.05291099039464586,0.031453370976126944,0.07311336699194255,0.015441903885744918,0.09835465905433563,0.07429717589327718,0.06696214688622082,0.1454961563918379,0.07414449846819084,0.09458048279674286,0.010692541301111585,0.13347429847567366
0.27613607313372024,0.08509737054154465,0.4482368716182615,0.03792335891539815,0.054026016688575595,0.03115723241609287,0.07417518264429367,0.015600597249036088,0.09717141879841298,0.07384559341224323,0.06829768748552448,0.14216217218546862,0.07571182872177791,0.09614126892658678,0.011369578788145504,0.13553199489874854
0.2702560227828327,0.08584770348708652,0.4474640651536829,0.037963220378225575,0.055155072732548945,0.030854292151914705,0.07526909026741772,0.01576443134503172,0.09597538029280714,0.07339253391276196,0.06967895364251452,0.13894688758047247,0.07729880796236044,0.09771770593520317,0.012090600966541274,0.13757973282764782
0.26440204123486766,0.08660068460671125,0.4465578198139008,0.038025289202040534,0.05629737348992012,0.030544819043745442,0.0763944905965607,0.015933070931259913,0.09476698130998978,0.0729387547376332,0.07110631637078446,0.13585151387655728,0.07890540809254583,0.0993087557208668,0.012856645450528493,0.13961609465470978
0.25857697514676287,0.08735641311247984,0.44551976066472015,0.03810982635613642,0.0574521492294989,0.030229126311122873,0.07755070958554064,0.01610618898777991,0.09354674780038268,0.07248514704317406,0.07258025908798041,0.13287707574241997,0.08053172647073167,0.1009133731459493,0.013668738597835683,0.14163984814462602
0.2527832655036346,0.08811497223357136,0.44435167166917106,0.03821709507848257,0.05861864056017941,0.029907553795123814,0.07873697177055833,0.016283469169417787,0.09231531165428644,0.07203274634376587,0.07410138157251217,0.13002445953434397,0.08217796667012255,0.10253054688726834,0.014527889553954704,0.14364994391246305
0.24702304121539856,0.08887648023839909,0.44305520970909357,0.038347344685458314,0.059796089250056,0.0295804474114905,0.07995237618466104,0.01646460638962249,0.09107341706221748,0.07158273018645449,0.07567039718153874,0.12729445773980747,0.08384440985525796,0.10415933372718354,0.015435084715575522,0.14564549776122113
0.2412982325738382,0.08964113576806847,0.4416316143338317,0.03850079209910317,0.060983724740799716,0.029248137271457964,0.08119588666854749,0.01664930539279894,0.08982191565927758,0.07113640337487497,0.07728812322103609,0.12468780880088194,0.08553137715346548,0.1057988848037709,0.01639128389800229,0.1476257576792065
0.23561067391034615,0.09040925566954468,0.4400815343107506,0.03867760385106149,0.062180746402434026,0.028910919281490623,0.08246634327069136,0.01683727726655186,0.08856175107689747,0.07069517174353017,0.07895546454428756,0.12220523156315012,0.08723918377771092,0.10744846263679647,0.017397418846600777,0.14959005582986198
0.2299621881378556,0.09118130371416718,0.438405081867133,0.03887788629145252,0.06338630171088602,0.02856904902841569,0.08376248701313596,0.01702823394376624,0.08729393392787177,0.07026050600522203,0.08067339063623669,0.11984745362345334,0.08896808602255117,0.1091074480961476,0.018454392912734194,0.15153774640801077
0.22435465189747222,0.09195790885237995,0.43660207608944107,0.03910169041885136,0.0645994614667751,0.028222751568323278,0.08508298705558828,0.017221880841768022,0.08601950860114585,0.06983389762976008,0.08244290661218452,0.11761523292403106,0.09071823027737284,0.11077533686304045,0.01956308025002858,0.15346813076663798
0.2187900407599054,0.09273987198190402,0.43467234353457773,0.03934902801582366,0.06581919805437547,0.02787223980264788,0.08642646597853154,0.01741790807143543,0.0847395135271854,0.06941680903953357,0.08426501871544534,0.11550937206668822,0.09248962892161439,0.11245172533237272,0.0207243238318179,0.15538037387274656
0.21327045463590424,0.09352816058463369,0.43261599104806026,0.039619891074657944,0.06704437852235537,0.027517732648301672,0.08779152215205231,0.01761598236582589,0.0834549367821893,0.0690106268770167,0.08614069503591751,0.11353072499791486,0.09428218032044713,0.11413628629729781,0.021938932183857278,0.15727343131170923
0.2077981242046182,0.09432389100536817,0.430433625330567,0.03991427017917183,0.06827377840143319,0.027159469945454304,0.08917674817474286,0.017815744247182762,0.08216667240798688,0.06861663961048678,0.08807082228731493,0.11168019593808427,0.09609571831992687,0.11582873512544443,0.02320767537139236,0.15914602503704625
0.20237539975352797,0.09512829858847874,0.42812650979076183,0.04023217073061238,0.06950610874382442,0.02679772375931291,0.09058074442139863,0.018016812924377058,0.0808754920740778,0.06823605343041428,0.09005616496462059,0.1099587306837179,0.09793006712764135,0.11752878746314621,0.024531282052668194,0.16099668676669868
0.19700472432143531,0.09594269634014092,0.4256966522953352,0.04057362647512232,0.07074004637675342,0.026432805911773438,0.09200212683178007,0.018218796026746944,0.07958204753900192,0.06787003261043893,0.09209734435404875,0.10836730068619183,0.09978509180869369,0.1192361097755888,0.02591043927250151,0.16282384259422453
0.19168859343449468,0.09676842322604706,0.4231468207641381,0.04093870986128691,0.07197426352244238,0.026065071748470867,0.09343952820658412,0.01842130007515274,0.07828690121650214,0.06751974192529094,0.09419484995910124,0.10690688058557694,0.10166074235200362,0.12095026423669003,0.027345794662936854,0.16462590400787924
0.18642950401657812,0.09760678362906729,0.4204804869890303,0.041327538840348114,0.07320745577494728,0.025694920298603218,0.09489159245042854,0.018623940051730754,0.07699056688594227,0.06718638160827521,0.09634907344657109,0.10557842013606897,0.10355708956418659,0.12267065454831737,0.028837959773926444,0.1664013520566264
0.18122989523605323,0.09845898611153393,0.4177017024088256,0.04174027981638218,0.07443836739616004,0.02532279111322464,0.096356961412653,0.01882634764846151,0.07569354703644855,0.06687121321120919,0.09856034777794667,0.10438281168176176,0.10547435135758576,0.12439649154049785,0.030387513888748607,0.16814881161044065
0.17609208412245933,0.0993261054194653,0.414814912686871,0.04217714655645072,0.07566581289226393,0.024949158169152403,0.09783425422055599,0.0190281778262291,0.07439636291005249,0.06657557568302716,0.10082898420605103,0.1033208545125171,0.10741290837667598,0.12612679683054948,0.03199500808866995,0.16986711294294765
0.17101819875381688,0.10020909124519668,0.4118247206656422,0.04263839497887652,0.07688869386118077,0.02457452129902264,0.09932203926961623,0.019229113382811816,0.07309957650295346,0.06630089149503494,0.10315530578342119,0.10239321753708863,0.1093733083351658,0.12786043951777157,0.03366096931951908,0.1715553382516651
0.16601011747781425,0.10110881799433478,0.40873560949036847,0.04312431384890505,0.07810601016415541,0.024199395654066765,0.10081879932255566,0.0194288673068721,0.07180380413966349,0.06604866313672918,0.105539676401613,0.10160040606752713,0.11135625889369427,0.12959618513570956,0.035385904191189754,0.17321285121127986
0.1610694360815811,0.10202614964846263,0.40555166933594006,0.04363521152269251,0.07931686457320888,0.023824299727139862,0.1023228923196592,0.019627182781749693,0.07050972158990272,0.0658204607592462,0.1079825244414112,0.10094274677430379,0.11336260937176244,0.13133274320710164,0.037170302223523834,0.17483930821113972
0.15619748184980445,0.10296200216746448,0.4022764408277282,0.044171398990487214,0.08052046018246134,0.02344974246273019,0.10383251890431411,0.0198238307936994,0.06921806103754273,0.06561790213047992,0.1104843601888928,0.10042039913638155,0.11539332203285989,0.13306880977581811,0.039014638239455404,0.17643465053850532
0.1513953645358883,0.10391739802471762,0.39891297196903325,0.044733169575869834,0.08171609004575561,0.02307621028818997,0.10534571495450076,0.020018605390164968,0.06792960052096274,0.06544262636820676,0.11304578626228962,0.10003338262397518,0.11744943408424248,0.13480310397977446,0.04091937360005442,0.17799907741021617
0.14666403715779863,0.10489351074307521,0.3954640433197565,0.04532077593714972,0.08290311871461847,0.022704156788174012,0.10686037580487169,0.020211316721046854,0.06664514673320952,0.06529626312230001,0.11566750040130783,0.09978160410812387,0.11953201187027242,0.13653439792887848,0.042884955977654536,0.17953300040198952
0.14200435021409377,0.10589169764647136,0.3919324373026098,0.04593440872058562,0.08408095559640912,0.022333999755435187,0.10837429876545368,0.020401782076385173,0.06536551228906413,0.06518039897765213,0.11835029009616663,0.09966487965717791,0.1216420989921936,0.13826153933744154,0.04491181737410402,0.18103698045135844
0.13741709568397736,0.1069135194631955,0.3883211775612613,0.04657418760074898,0.08524902032713916,0.021966127227598865,0.10988522837965835,0.020589815204540143,0.0640914887279783,0.06509654454997554,0.12109501868042359,0.09968295021012394,0.12378066024399437,0.13998346652227778,0.04700037011283605,0.18251164919306176
0.13290304053175628,0.10796074589572269,0.3846337183766145,0.04724017150184187,0.08640670064920344,0.021600908227781823,0.11139089837275515,0.020775214280442825,0.06282381662320613,0.06504611097777105,0.12390260268181169,0.09983549109574091,0.125948523309859,0.14169921551075287,0.04915100056705279,0.1839576169022667
0.12846294980650974,0.10903534678918264,0.3808740774658097,0.04793238137279786,0.08755330552872984,0.021238703399706828,0.11288906835118163,0.020957750666379095,0.061563156817635425,0.06503040590569897,0.12677398042036714,0.10012211566235842,0.12814632643971216,0.14340791910624603,0.05136406043232801,0.18537536975208
0.12409759976405627,0.11013946906491223,0.3770469082610083,0.048650825399752205,0.08868802596792746,0.020879873945591324,0.11437755339555368,0.0211371639224206,0.06031007325730115,0.06505064828833125,0.12971007206335794,0.10054237355208924,0.13037449225753328,0.14510879783487834,0.053639855410213745,0.18676517052896663
0.11980778173133384,0.11127540011500232,0.373157510634788,0.04939552271176961,0.0898099254988571,0.020524788718940406,0.11585424485400403,0.021313166592836337,0.05906503726279234,0.06510799025305158,0.13271173159041003,0.10109574438175024,0.13263323956366402,0.14680114275374667,0.05597863123920172,0.18812700232370785
0.11559429767636593,0.11244551885662957,0.36921178186641634,0.05016652473837352,0.09091796935419184,0.020173829386307986,0.11731712088570549,0.02148545528820184,0.0578284498234723,0.06520353630870841,0.13577969138611157,0.10178162776942414,0.1349226179605744,0.14848429014720102,0.058380557088934776,0.18946058889513692
0.11145794863572991,0.11365223610099767,0.36521611229489326,0.050963933390638066,0.09201107658856794,0.019827393633797694,0.11876424562183202,0.0216537227218646,0.05660066944065386,0.06533835725434713,0.13891450533780275,0.10259933076357222,0.13724254414858883,0.15015758818581298,0.06084570853403344,0.19076547554595036
0.10739951728390294,0.11489792628282383,0.3611772324595555,0.051787915274265135,0.09308817613587049,0.019485896454708426,0.12019375619399893,0.021817668651747155,0.055382037217026434,0.06551349882216266,0.14211650982149399,0.10354805378713937,0.13959283270980008,0.15182035568526184,0.06337405707076935,0.19204112847831312
0.1034197460053436,0.11618485722438034,0.3571020204850108,0.05263871120538958,0.09414825951597222,0.019149769613131612,0.12160383731620515,0.021977009372077725,0.054172897006803396,0.06572998535791007,0.14538582422330001,0.10462687620213333,0.14197322125542272,0.153471833191518,0.06596547211661119,0.19328702897574412
0.09951931185298503,0.11751513867104786,0.35299727994516833,0.053516640389704835,0.09519042812166635,0.018819459432951154,0.12299268358016327,0.02213148544667479,0.052973610232067626,0.0659888190580804,0.14872238950210712,0.10583474253409068,0.14438339012718218,0.15511112674441802,0.06861973299664537,0.19450275651051663
0.09569879974996648,0.11889071599312527,0.348869512858833,0.05442209874408908,0.09621393312237489,0.01849542311076463,0.12435845011792088,0.022280867430227867,0.0517845651984958,0.06629097543671399,0.1521260235890883,0.10717045027672721,0.14682297709775396,0.15673714760666804,0.07133654468389711,0.19568805849910312
0.0919586752203599,0.1203134109842628,0.34472475638973116,0.05535555098755012,0.09721820622176063,0.018178123792768626,0.12569919278055813,0.022424959384864634,0.05060618096304151,0.06663739578218568,0.15559647724641568,0.10863264003293817,0.14929158769110398,0.15834856366455627,0.07411555421060272,0.19684290487533698
0.08829925985561073,0.12178498410790184,0.34056856815460806,0.0563175163041586,0.09820287979775776,0.01786802468767024,0.1270128076774668,0.02256360006432504,0.049438906009098615,0.06702897738810544,0.1591334848281806,0.11021978854865072,0.15178880182983726,0.15994378934234343,0.07695636693190921,0.19796752613395915
0.0847207179101212,0.12330719522971274,0.33640616322669376,0.05730854758234313,0.09916779532615633,0.01756558250844222,0.12829699862286553,0.02269666170548181,0.04828321216428184,0.06746656230974261,0.1627368076048771,0.11193020497102622,0.1543141775099911,0.161521024086124,0.0798585620054917,0.19906243399690307
0.08122306224935118,0.12488185522764576,0.3322426146679002,0.058329204458255735,0.1001129994274732,0.01727124054389493,0.12954929669551712,0.022824046435230592,0.0471395843468654,0.06795092531895175,0.16640626738144396,0.1137620304222226,0.15686725210857153,0.16307831993490302,0.08282170641826098,0.20012842435289976
0.07780617673670628,0.12651086666517394,0.32808303973545855,0.05938002062967034,0.10103872736098021,0.016985421655864412,0.1307671208773109,0.0229456803685196,0.046008506845315815,0.06848276162064824,0.1701417683101512,0.11571324073404035,0.15944754175726572,0.16461365565699027,0.08584536687409602,0.20116656260151464
0.07446984370220949,0.12819625213365965,0.32393274701268865,0.0604614695388804,0.10194537429495543,0.016708522219813473,0.13194785157893923,0.02306150553904422,0.044890446919064554,0.06906267476819608,0.1739433050782699,0.11778165194651435,0.162054538985341,0.16612500910454928,0.08892911885451117,0.2021781519817273
0.0712137686338866,0.12994016933884148,0.3197973403514521,0.06157394173555502,0.10283345518158361,0.01644090942106078,0.13308890158402034,0.023171469866564494,0.043785836557076706,0.06969116508847631,0.17781095603591712,0.1199649279433496,0.16468770856894896,0.16761042537557339,0.09207255217715266,0.2031646858718965
0.06803760022752726,0.13174491250669565,0.3156827776680573,0.06271774845952617,0.10370355453096311,0.01618292330590566,0.1341877798195791,0.023275515422784835,0.04269505412862982,0.07036861881276259,0.1817448603153861,0.12226058938669142,0.1673464812490226,0.16906807820564804,0.09527527240467887,0.20412778540507975
0.06494094581113602,0.13361290019686894,0.31159538477692184,0.06389315020732489,0.10455626778515782,0.015934881666770644,0.135242145108547,0.02337356537969465,0.04161841101632441,0.07109529801702683,0.18574517856725337,0.12466602293034906,0.17003024472259506,0.17049632193951375,0.09853689749917934,0.205069124046906
0.06192338231105916,0.13554665011818845,0.30754182647631173,0.06510039616340879,0.10539213631702855,0.0156970850145526,0.13624984732740636,0.02346551201698365,0.04055615034746835,0.07187133196290925,0.18981203758203025,0.12717848954149388,0.17273833109844736,0.17189373147447262,0.10185704917582247,0.20599034103108207
0.05898446305717385,0.1375487420214647,0.3035290389274553,0.06633976378497816,0.1062115847048751,0.015469820614137946,0.13720895377555314,0.02355121172114452,0.03950845889702914,0.07269671157207344,0.19394545975462207,0.1297951306532572,0.1754699998600292,0.17325912773913618,0.1052353384852562,0.2068929457416119
0.05612372083201437,0.13962177018236466,0.2995641289160144,0.06761159481876187,0.10701488381045234,0.015253365545547643,0.13811775905172627,0.023630490709854183,0.038475485082563064,0.07357128822938255,0.19814527905314044,0.1325129708117927,0.17822441531387204,0.17459158657973892,0.10867134524927825,0.20777821883911954
0.05334066765169519,0.14176828736529437,0.29565424679398905,0.06891632605915851,0.10780216007842827,0.015047988855562126,0.13897477731119046,0.023703157647870822,0.03745735622582559,0.074494775468208,0.20241105652679836,0.13532891547850678,0.18100061753118932,0.17589042937153743,0.11216459109109149,0.20864713311264585
0.050634791824294416,0.14399074246321616,0.29180644073010054,0.07025451325667911,0.10857344171060954,0.014853952907444344,0.1397787164249797,0.023769017376655505,0.03645419291192163,0.07546675099608063,0.20674203246326883,0.1382397427084345,0.18379748591816833,0.17715519424552714,0.11571450594304258,0.2095003331076022
0.04800555286425467,0.1462914155374856,0.28802750032667185,0.07162684676426623,0.10932871584898873,0.01467151406823538,0.14052843425525266,0.02382788353235112,0.03546612018568109,0.07648665776633508,0.2111371458496025,0.14124208755560097,0.18661369477347817,0.1783855875032869,0.11932038808355135,0.21033818707916682
0.04545237485054435,0.14867236281186955,0.28432381613456487,0.07303415776450269,0.11006798162130085,0.01450092289218325,0.14122287797155675,0.02387958962483595,0.03449327545171762,0.07755380384491853,0.21559510548467817,0.1443324182605576,0.1894476606903696,0.17958141555919763,0.12298136246893689,0.21116087956521906
0.0429746388036899,0.15113539427298048,0.28070131631755973,0.07447741424620466,0.11079129539247533,0.014342423964247307,0.14186100803252663,0.023923998182473115,0.033535813067501946,0.07866736102781674,0.22011447528989592,0.1475070035565942,0.19229749107417546,0.18074249856604735,0.12669635363167106,0.21196850894337518
0.040571674624787606,0.15368209251650966,0.2771655159506081,0.07595770628308023,0.11149880728917941,0.014196255559307796,0.1424417091163298,0.023961007613104185,0.032593905733756076,0.07982636221043578,0.22469375343579717,0.15076187620222412,0.19516096130609575,0.1818685677079671,0.13046408999240672,0.21276117768301683
0.03824275309122133,0.15631385310199705,0.2737216320746881,0.07747622059471594,0.1121907884741228,0.014062649251665858,0.14296370359221297,0.02399055649163225,0.031667742890094594,0.08102969758940483,0.22933143905988929,0.1540928112930038,0.19803554103567866,0.18295916060565157,0.13428313723697077,0.21353907308947284
0.0359870791907585,0.15903192320221235,0.2703746977080924,0.0790342048226652,0.11286764903635771,0.0139418295775648,0.14342551001091028,0.02401262505747495,0.030757526413308374,0.08227610988748103,0.23402608263052022,0.1574953380786684,0.200918456194688,0.18401355840958228,0.13815194506363507,0.2143025364626587
0.03380378993499611,0.16183743033362394,0.2671296496872347,0.08063292241081821,0.11352994671076824,0.013834013813555996,0.14382547804343895,0.02402723379000065,0.029863463988995004,0.08356418892605627,0.23877631650924003,0.1609647825722406,0.20380676243979542,0.18503080684124074,0.14206889663435354,0.2150521187526534
0.03169195912823137,0.16473139997206332,0.2639913879062233,0.08227359941681758,0.11417838692623225,0.01373941188891471,0.14416187737660852,0.02403443902490882,0.0289857605830928,0.08489236601455988,0.24358086295272344,0.16449632486056096,0.2066974200606456,0.1860098102812135,0.14603235716093474,0.21578862099532334
0.02965060723547579,0.16771476135994898,0.2609648056190102,0.08395737211740874,0.11481381489480903,0.013658226404630465,0.14443299842589796,0.024034325676716144,0.028124608477571686,0.08625890876490151,0.2484385176538076,0.1680850607602443,0.2095873678272848,0.18694945297424706,0.15004071956245688,0.21651311805805576
0.027678712203902972,0.17078834135213944,0.25805479193952086,0.08568525963314971,0.11543720058811899,0.013590652688484316,0.14463724549398357,0.024026997238701393,0.027280176354041744,0.08766191705237852,0.2533481079186934,0.17172606381530595,0.21247359300005425,0.18784871694521846,0.15409244494940555,0.2172269645244116
0.02577521890080056,0.17395284670479727,0.25526620901736913,0.08745818001862488,0.11604961750406598,0.013536878779004068,0.14477321764649315,0.024012563337929484,0.02645259844465851,0.08909932091186099,0.2583084256744941,0.17541444445570037,0.2153531945649782,0.18870678702360666,0.15818609558339308,0.2179317819011905
0.02393904676367841,0.177208835762038,0.2526038475168515,0.08927699762991606,0.11665221611611985,0.013497085203889212,0.1448397740279022,0.023991125224897946,0.025641966776201983,0.09056888116066991,0.2633181366515805,0.17914540281055305,0.2182234366985342,0.18952313862961373,0.16232035794878535,0.218629426743957
0.022169095743425953,0.18055668101447414,0.25007236493338797,0.09114257748585572,0.11724619283232707,0.01347144440330276,0.14483608089208655,0.023962761030549368,0.024848330720260877,0.09206819346218817,0.26837566823696934,0.18291427149226874,0.22108178951480525,0.19029760455400355,0.16649405367150788,0.21932193976632575
0.020464250671894883,0.18399652446808784,0.24767621190651395,0.09305583483403275,0.11783275518931202,0.013460119646797428,0.14476163829680894,0.023927516283147283,0.024071704424328953,0.09359469637788197,0.2734790931485112,0.18671654467038498,0.22392595431042278,0.19103041772330645,0.17070613624377418,0.22001147651909667
0.018823384224823547,0.18752822885811002,0.24541955200944834,0.09501777683890407,0.11841308388731632,0.013463263305238843,0.14461628518329134,0.023885405488391125,0.023312077847910496,0.09514568369927949,0.27862605878864216,0.19054788996267216,0.22675387080190623,0.19172222784880827,0.17495567186857258,0.22070022078800983
0.017245358679107373,0.19115133398115128,0.2433061840660411,0.09702953441158498,0.11898829215591297,0.013481014365599855,0.14440018239978714,0.023836423902001826,0.022569427322447516,0.09671832101378139,0.2838138080351627,0.19440414010148704,0.22956370424788866,0.1923740908702456,0.17924180322419564,0.22139028244904665
0.015729026680048785,0.19486503514389833,0.24133948694708135,0.09909238258050415,0.11955938284461201,0.013513495115506714,0.1441137740971892,0.02378056329247404,0.021843724352535506,0.0983096660562175,0.2890392764053572,0.1982812619893863,0.2323538108647416,0.19298743117633482,0.18356369555811766,0.22208358211856918
0.014273231239950253,0.1986681906811333,0.23952240876752887,0.10120774825968544,0.12012720435338786,0.013560807458389845,0.1437577287887731,0.02371782709193113,0.021134942514489947,0.09991669195799101,0.29429921442018875,0.20217530162892938,0.23512268057437655,0.19356397766426736,0.18792046523324804,0.2227817421633614
0.012876805185252038,0.20255934373387513,0.2378574969300309,0.10337720478659504,0.12069241324759,0.01362303064621844,0.14333286218795993,0.023648243450162414,0.02044306238080342,0.10153631206150275,0.29959030294788586,0.20608230447165413,0.2378688568595952,0.19410567573915188,0.19231109164115304,0.2234860376747018
0.011538570256635327,0.20653674005963807,0.2363469397919648,0.10560245315085423,0.12125546106587712,0.013700222438116172,0.14284004468110617,0.02357187566471032,0.019768074470021497,0.10316540455818964,0.30490925083168935,0.20999821193926807,0.24059083433210904,0.19461457830479165,0.1967343241446746,0.22419744451551465
0.010257336046627367,0.21059833477751833,0.23499259616885101,0.10788529039348542,0.1218166146547814,0.01379242361874201,0.14228009692316568,0.023488829558457387,0.01910998028881672,0.10480083487393062,0.31025286898840515,0.2139187479049869,0.24328693552072295,0.19509271961703353,0.2011886217610641,0.22491675233160072
0.009031898934010012,0.2147417864318519,0.2337960062921386,0.11022756619843971,0.12237599769575505,0.013899664138571832,0.14165369120881086,0.023399257496708428,0.018468791594545418,0.10643947350396067,0.3156181159545747,0.2178393420866205,0.24595518648883044,0.19554198388498625,0.2056721649916209,0.22564468936724272
0.007861041145573653,0.21896443736965954,0.232758384735319,0.11263112919974384,0.12293363690205145,0.014021969549289283,0.1409613044370254,0.02330335887314293,0.01784452806053134,0.10807820692407294,0.32100211091743786,0.22175514377765426,0.24859325026487045,0.19596400677795556,0.21018293435902127,0.2263820371288244
0.006743530283521517,0.2232632801263424,0.23188059689513463,0.11509776496636027,0.12348950696200166,0.01415936722404236,0.14020325474893475,0.023201377041948027,0.017237213571179414,0.10971393929987179,0.3264021115620588,0.22566112482319417,0.251198469041939,0.19636016205297321,0.214718816830037,0.22712973005774936
0.005678120098771795,0.2276349180539263,0.23116312418504026,0.1176291327348275,0.12404357322547736,0.014311892062186377,0.13937979464191874,0.023093592824902708,0.016646871408647616,0.1113435829926026,0.3318154555452743,0.2295522230494258,0.253767993367918,0.19673164136802715,0.21927771212557493,0.2278889360592634
0.004663552958213764,0.23207554574517436,0.23060603407445227,0.12022672124417715,0.12459583100583244,0.014479591376734869,0.13849121327430164,0.022980314869776104,0.01607351861649666,0.11296403631659761,0.3372394660118758,0.2334234869077914,0.2562989403664493,0.19707957906921714,0.22385762903679393,0.22866111425264155
0.003698563312364131,0.23658097028151615,0.23020897868578322,0.12289184584900957,0.12514634028688995,0.014662528678931282,0.13753792700041814,0.022861867272762706,0.01551715983810971,0.11457214762405982,0.34267132322991406,0.2372702063800475,0.2587885487787162,0.1974051757819378,0.22845676671485196,0.22944804702477864
0.002781881129483053,0.24114666407865956,0.22997122919805005,0.12562568440749924,0.12569525459753783,0.014860786107906377,0.13652055380230246,0.02273857499592106,0.014977781070320037,0.11616466554780831,0.34810790606538394,0.24108802260978843,0.26123432090613563,0.19770980515225067,0.23307357625587152,0.2302518443662183
0.001912234870183112,0.24576782811910136,0.22989172832949964,0.12842932803914114,0.1262428428549978,0.01507446530304801,0.13543996913255382,0.022610748224602288,0.014455344727164997,0.11773818605832412,0.353545631457194,0.24487300924960267,0.26363414496622833,0.19799510024111008,0.23770679851085522,0.2310749195169057
0.0010883539947652318,0.25043945520885014,0.22996914092051068,0.1313038281736348,0.1267895030867739,0.015303686580205615,0.13429734148788403,0.022478669554825012,0.013949788505654887,0.11928912891897461,0.3589803702762655,0.24862171945831438,0.2659863917470258,0.19826301689074843,0.24235547489475218,0.231919936107639
0.0003089710589417966,0.2551563890191909,0.23020189414102382,0.1342502338950092,0.12733576712030906,0.015548586346985931,0.13309414690102406,0.02234259053478299,0.01346102893764806,0.12081376947567261,0.3644075014223138,0.25233119382500785,0.26828998014754707,0.19851587228042122,0.2470189290171233,0.23278972820120816
-0.00042717654201825605,0.2599133745133567,0.23058820406863148,0.13726961778012678,0.12788229557282446,0.015809312773256166,0.13183216242919496,0.022202739808188945,0.012988967327083177,0.12230831184746391,0.369822068359293,0.2559989261849342,0.27054440721367096,0.19875635782979417,0.251696718163064,0.23368719585586584
-0.0011213451205436952,0.26470509540201553,0.23112608609309904,0.14036308890131186,0.12842986277136667,0.016086019816129275,0.13051343958853823,0.02205933736866501,0.012533495447819403,0.12376897427638038,0.3752189612082425,0.25962278625178786,0.2727497395887457,0.1989875265542014,0.2563885549605012,0.23461517998989184
-0.001774783478685335,0.2695261945396904,0.23181334743419943,0.14353179219344608,0.12897933157055516,0.01637885977947538,0.12914025949526267,0.02191260867089668,0.012094500132249731,0.12519207269229066,0.3805930853657586,0.26320090012483505,0.2749065648433727,0.19921275588981643,0.26109420091436497,0.23557632534525985
-0.0023887318742593167,0.27437127367029324,0.23264756097066214,0.14677689395589955,0.1295316183957027,0.0166879746617229,0.12771507218852649,0.021762796357134833,0.011671866689755367,0.1265740976768317,0.38593950509502956,0.2667314919251545,0.2770159028567147,0.1994356878542763,0.26581333480143915,0.23657296443259263
-0.00296442112905765,0.2792348696464385,0.2336260205259801,0.1500995538473298,0.13008764920297658,0.017013487346231485,0.12624042319531356,0.021610169184755588,0.011265481144098137,0.12791178032575184,0.39125355410513063,0.2702126919498971,0.2790790792050397,0.19966014915919175,0.2705454042614906,0.23760708130372427
-0.0035030718464502696,0.2841114051655863,0.2347456824615271,0.15350088431441455,0.13064830739726152,0.017355495657391896,0.12471887082889607,0.021455027873971102,0.010875231327046727,0.1292021427982529,0.39653090630490845,0.27364234843902346,0.28109756427484284,0.1998900545196126,0.2752894959288925,0.2386803787755964
-0.004005893715519122,0.28899511315665033,0.2360031154604186,0.1569818989511604,0.13121437506485656,0.017714072399857197,0.12315289886522715,0.021297707738334084,0.010501006909952844,0.1304425298877632,0.4017676014477194,0.27701794107221156,0.28307278345774095,0.20012929689183945,0.28004429104973794,0.23979440222556936
-0.00447408488828332,0.2938799351726372,0.23739449529128298,0.16054345179070872,0.13178647346939443,0.018089270802016975,0.12154484110405978,0.02113857810725154,0.010142698493901238,0.1316306187269482,0.4069600222139075,0.280336663622981,0.2850059227893965,0.20038162870133652,0.28480813747553574,0.2409506634573956
-0.0049088314249648626,0.2987594103525303,0.23891565970200346,0.16418617490038928,0.13236502171374212,0.018481131903922317,0.11989685222728103,0.02097803869219186,0.009800195911002656,0.1327644047117539,0.4121048213336071,0.2835956179748489,0.28689780173233026,0.2006505516660892,0.2895791897516518,0.24215074344311213
-0.005311306809065668,0.3036266089275882,0.2405621999044345,0.16791043490369925,0.13295023613136928,0.018889691366387802,0.11821094191894721,0.020816513179915896,0.009473385913229016,0.13384216284330733,0.4171987995437724,0.2867920235095244,0.2887488885158438,0.2009392604971285,0.2943555555023145,0.24339636927113503
-0.005682671538891473,0.30847416388349774,0.24232955964276195,0.17171632972726153,0.13354217032683546,0.01931498492275421,0.11648904451326374,0.02065444045088327,0.00916214944011182,0.13486238488160782,0.4222387374009581,0.28992340139259765,0.29055944665350714,0.20125067269497965,0.2991354241851142,0.24468946180991172
-0.00602407280488278,0.3132943908625442,0.24421312972609296,0.17560372171095223,0.13414077337085448,0.019757052249871083,0.11473308836031447,0.020492263913951415,0.008866358662287903,0.13582369391494498,0.4272211861308459,0.2929877238070228,0.292329732091,0.2015875174583147,0.3039171722274076,0.24603215196348685
-0.00633664426266811,0.31807944505417557,0.2462083333495346,0.17957228322242658,0.13474594746188945,0.02021593912066922,0.11294505228610359,0.020330419515775956,0.008585873994362876,0.13672473910669136,0.43214224312480337,0.2959835200884379,0.2940601813601357,0.20195243513309655,0.30869943943377903,0.24742676487987597
-0.006621505910222521,0.3228214809397506,0.2483106977016437,0.18362153693690092,0.13535759908941136,0.020691697795206368,0.11112700790741184,0.020169323666144264,0.0083205415911884,0.137564085459463,0.43699739311756824,0.29890993375000846,0.29575157183779927,0.20234806491670956,0.3134811726525402,0.2488757729973908
-0.00687976401427076,0.32751280248623504,0.25051590772302607,0.1877508847756414,0.1359756821522996,0.02118438570476297,0.10928114726168872,0.020009364464412944,0.008070192413130596,0.13834014288821672,0.44178151164269974,0.30176672677902255,0.29740514794705375,0.20277711670521906,0.3182616339629509,0.2503817202976804
-0.0071125108701849404,0.3321459960000408,0.2528198384320737,0.1919596232714826,0.13660023175229205,0.021694062578454267,0.10740979589544743,0.019850900451370748,0.007834643354954332,0.13905118084170415,0.44648903322621264,0.3045542302116601,0.2990227086698372,0.20324242548293545,0.32304037204037583,0.2519471214993947
-0.007320824157767716,0.3367140380787049,0.25521856295419687,0.19624694367916795,0.13723138768587886,0.022220786247799103,0.10551541218777556,0.01969426702000334,0.007613699390770479,0.13969542167617285,0.45111419367079847,0.3072732426983082,0.3006066534522005,0.20374698731283825,0.327817156817696,0.2535743411021893
-0.0075057659180034625,0.34121037170183693,0.25770833425898926,0.20061191580350757,0.13786940698564734,0.022764607435865253,0.10360057423931787,0.019539785953423375,0.0074071554394686415,0.14027116482139246,0.4556512693731557,0.30992488140408087,0.30215998538039474,0.20429397663175672,0.332591879031273,0.2552654655980561
-0.00766838138066208,0.3456289444781226,0.2602855395971447,0.20505345525761393,0.13851466520075,0.023325563888720605,0.10166795610776888,0.01938777406790957,0.0072147975251467215,0.1407769065103719,0.46009478642693125,0.31251039199511776,0.30368627229531747,0.20488674516001384,0.33736441766363334,0.25702220755507077
-0.007809697810662939,0.34996420438705594,0.26294662770082067,0.20957027465889713,0.13916764644426644,0.02390367423367443,0.09972029550161975,0.019238549705645536,0.007036403239534379,0.14121144341831823,0.46443968969701166,0.3150309265007947,0.3051895682056641,0.20552880328067882,0.3421344796204377,0.2588458911270404
-0.007930723431490727,0.35421104997743463,0.2656880099280018,0.2141608200893284,0.13982892256231663,0.024498931948281805,0.09776035524525829,0.01909243691501263,0.006871741549108396,0.14157395569086814,0.46868146359530044,0.31748732564188886,0.3066742988794622,0.20622378521352774,0.3469014244499165,0.26073752335653266
-0.008032446457205172,0.35836473384580214,0.26850593764956976,0.21882320460791357,0.14049912208607845,0.025111299795088894,0.09579088089888518,0.018949767275665226,0.006720572021454967,0.14186406574351185,0.4728161982155366,0.31987999957027663,0.30814511677660056,0.20697539969461531,0.3516641204351408,0.2626979026659432
-0.008115834267065011,0.36242072023746275,0.27139636935980466,0.22355517186310656,0.14117888990518596,0.02574070502029168,0.09381455686183778,0.01881087944294826,0.006582643666092617,0.14208187028399336,0.4768405967080277,0.3222089798760178,0.30960673148518486,0.20778736817178256,0.3564209068437971,0.26472771979102916
-0.008181832757227834,0.3663744996983045,0.27435487359333155,0.22835411594687782,0.1418688388435863,0.02638703553252744,0.09183396312031664,0.018676116595767234,0.006457693978007906,0.14222794419428586,0.4807519221929669,0.32447409650419445,0.31106372251437603,0.20866335274273357,0.3611696867558773,0.26682763579091756
-0.00823136590219477,0.3702213657565222,0.27737662710925376,0.2332171428481044,0.14256949452259807,0.02705013717556119,0.08985153885973272,0.018545822068515353,0.006345449049925485,0.14230331615084796,0.4845478850129946,0.3266751802091145,0.312520354060293,0.20960687620288113,0.36590809020766424,0.26899833345463203
-0.008265335554533718,0.3739561931720408,0.28045651531691435,0.23814114182705035,0.14328123505721546,0.027729812092155845,0.08786956682785983,0.01842033352656377,0.006245625011783148,0.14230941710170092,0.4882264735986259,0.328812238565558,0.3139804471126948,0.210621236644958,0.37063364000199067,0.271240539722583
-0.00828462150497381,0.377573327828377,0.2835892830406392,0.24312285042791887,0.14400423379166208,0.028425818053930532,0.08589018551657354,0.01829997610254391,0.006157930128418223,0.14224800389771552,0.4917857345535572,0.3308855928507428,0.31544737135821366,0.2117094269953697,0.3753438948048092,0.273555018131788
-0.008290081816409384,0.3810666730189958,0.2867696882218206,0.2481589076170553,0.14473842779606566,0.029137868512552564,0.08391541669399992,0.018185054944726966,0.006082066809807593,0.14212106143839906,0.49522350965833056,0.3328959708191547,0.31692415144220004,0.21287408798800875,0.380036562675631,0.2759425317083123
-0.008282553435003465,0.38442991874023236,0.28999264154628634,0.2532458907414495,0.14548353060763292,0.029865633020639583,0.0819471920558626,0.01807584831100866,0.00601773322777053,0.14193068759074975,0.4985371573086127,0.33484455277290903,0.31841361883804126,0.21411751886952865,0.38470957915214293,0.2784037781028893
-0.008262853069879002,0.3876568061452978,0.2932533261647517,0.2583803325187729,0.14623907863645666,0.030608737585506727,0.07998737355086764,0.017972603726103032,0.005964624430421579,0.14167896583289558,0.5017233464617713,0.3367329707367176,0.31991855463759455,0.21544173336677389,0.3893611452504838,0.2809393000328945
-0.008231778280596897,0.39074137512494417,0.2965472923653508,0.26355871501778827,0.14700448695599977,0.03136676446368806,0.07803776755645044,0.01787553894016709,0.005922432869070098,0.1413678478390783,0.5047780385387971,0.3385632628322598,0.32144180700712544,0.21684852862438425,0.3939897222189825,0.2835493751991571
-0.00819010846293689,0.3936781811246836,0.2998705230005037,0.26877743854671415,0.14777910158131072,0.03213925088566647,0.07610013349259999,0.017784846074197194,0.005890848279578488,0.14099910082873401,0.5076966714373574,0.34033778697885125,0.3229863803803216,0.2183395484687912,0.3985939815503093,0.28623390170061247
-0.008138605134607223,0.3964624716856976,0.30321946662355603,0.2740327645042462,0.14856224517647856,0.03292568622286048,0.07417618766116603,0.0177006959432399,0.005869556890246542,0.14057435340160016,0.5104744403125013,0.3420590997157662,0.3245554945513832,0.21991633642151184,0.40317271056003007,0.2889923233145486
-0.008078011225224379,0.399090314743786,0.3065910365971946,0.2793207325183758,0.14935325487472992,0.03372550717427654,0.07226760322364842,0.017623241024182407,0.005858239959869429,0.1400952013100975,0.5131065774249909,0.34372980716666707,0.3261526129069103,0.22158037699092273,0.4077246757140526,0.29182363887131507
-0.008009049760577121,0.40155867265668255,0.30998257582672223,0.28463705606865464,0.15015151108289387,0.03453809196132321,0.07037600728273202,0.0175526167869468,0.005856571787977081,0.13956331659433652,0.5155885973329113,0.34535239590325173,0.3277814400610986,0.22333312409591127,0.41224844776119207,0.29472648638437726
-0.007932422464620687,0.4038654181629451,0.31339178816981844,0.2899770231997013,0.15095645635597293,0.03536275757392206,0.06850297601726275,0.01748894139895096,0.005864217920036026,0.13898053879704175,0.5179164982594422,0.34692905170501787,0.32944589010723546,0.22517601584951316,0.4167421992385707,0.2976992533674936
-0.007848808495586078,0.40600929089616467,0.31681663890107087,0.2953354603516003,0.15176760366391503,0.03619876382951833,0.06665002874651027,0.017432313906009446,0.005880834891689419,0.13834894525925204,0.5200869121558233,0.3484614922347301,0.3311500275497001,0.2271104753485312,0.42120352257559585,0.30074017890453525
-0.007758863387520151,0.4079897955658909,0.32025522778863863,0.30070679336636463,0.15258453362764773,0.03704532334100343,0.06481862167991757,0.01738281107723689,0.005906072174935016,0.13767089855026654,0.522097197907546,0.34995087710231015,0.33289798372216045,0.22913789756267186,0.4256293663253778,0.30384743649233625
-0.007663218264311156,0.40980704534723567,0.32370563930561624,0.3060851716830328,0.1534068805716336,0.03790161434836542,0.06301014195733022,0.017340483404015384,0.0059395755269221655,0.13694907020267505,0.5239454742223483,0.35139784047382466,0.33469385212377195,0.23125962287451254,0.43001613961591767,0.30701919369162767
-0.007562479385182701,0.4114615562744023,0.3271657751991592,0.31146460451715646,0.15423430752211315,0.038766794828158695,0.06122590241678274,0.017305351743787566,0.005980990660234729,0.13618644104972505,0.5256305909074374,0.35280260847874567,0.336541566615704,0.23347689826574855,0.43435991787108647,0.31025364566344305
-0.007457228068968195,0.41295400039989866,0.33063318361057165,0.31683908692170815,0.15506647056942602,0.0396400171287622,0.05946713735673437,0.01727740682889795,0.006029966781410727,0.1353862795403343,0.52715203940941,0.3541651321976479,0.3384447668188141,0.23579082754963782,0.4386566588882098,0.31354902081037456
-0.0073480210296159865,0.4142849270680568,0.33410492977434797,0.32220270816620417,0.15590297330451106,0.04052044225266642,0.057734999400203074,0.017256612299450122,0.006086159837270358,0.13455210038208898,0.5285098055782452,0.35548520416980467,0.34040666072201375,0.2382023123890106,0.44290239278749166,0.31690355792807196
-0.007235391137947698,0.415454488936253,0.3375775706230405,0.32754973524518344,0.15674331232892183,0.041407252818021406,0.056030557430220326,0.017242909500056025,0.006149235314745225,0.1336876066859376,0.5297041695594015,0.3567625537825945,0.3424299171266412,0.24071198609201905,0.44709337584269937,0.3203154554473083
-0.007119848605524479,0.4164622737445098,0.34104724338911346,0.33287466509653063,0.1575868151186526,0.04229966369745601,0.054354795457139636,0.017236222090904172,0.006218870452916525,0.1327966194182912,0.5307354594577403,0.3579969212976329,0.3445166371707998,0.24332014232898508,0.4512261994024002,0.32378279445926667
-0.007001882566522497,0.41730733689626875,0.3445098106062168,0.3381722402585571,0.1584325798515491,0.04319692935846205,0.05270861220311254,0.01723645970418624,0.0062947557453973645,0.1318829983779116,0.5316037669066286,0.35918811101212234,0.3466684160924085,0.24602666931229467,0.45529784677500684,0.3273034382212382
-0.006881963013815306,0.4179884040648819,0.3479610067042625,0.34343742418443096,0.15927944442041306,0.04409834701838312,0.05109282114882167,0.017243520412290457,0.00637659563620379,0.13095055908979536,0.5323086522277201,0.36033602452301633,0.3488864490599928,0.24883101650736866,0.45930569302719,0.33087491170018546
-0.006760542809191127,0.41850413049864654,0.35139656907326877,0.348665334204551,0.16012600622113407,0.045003254876264144,0.04950815078067792,0.017257291840940714,0.00646410834172142,0.1300029923517912,0.5328489286817064,0.36144067525854673,0.3511716333945766,0.2517322115900727,0.4632474450582456,0.33449427769273843
-0.006638058954527054,0.41885334318313455,0.3548123514306977,0.35385113210426905,0.16097067988771172,0.04591102488749865,0.04795524479894445,0.01727765083370692,0.0065570247639488944,0.12904380316931946,0.533222644216047,0.3625021853977134,0.35352465046641707,0.2547289099012237,0.467121021965786,0.3381580574731057
-0.006514932363524706,0.4190352456783393,0.3582044180051164,0.35898987437342755,0.16181176551568136,0.04682104979556131,0.04643466209236207,0.017304461649905522,0.006655086494416798,0.12807629221223066,0.5334272751106358,0.3635207660696559,0.3559460235687507,0.2578194487598199,0.470924378495158,0.3418622440170133
-0.0063915663615224634,0.4190495801524986,0.36156911758959903,0.36407632664685535,0.16264751361771848,0.04773272441524654,0.04494687634516217,0.01733757275184661,0.006758042942479243,0.12710358205494152,0.5334600218158815,0.3644966813860401,0.3584361487529463,0.26100189601393237,0.474655277136654,0.34560239812642424
-0.0062683447517433285,0.4188967430378854,0.36490313689525333,0.3691047799507328,0.1634761832636236,0.048645421458653415,0.04349227532204559,0.01737681230600509,0.0068656476544848655,0.12612866156348132,0.5333181053646898,0.3654301964955609,0.36099529647214784,0.26427409158762355,0.4783110321819905,0.34937377652370255
-0.006145629985995814,0.418577852660332,0.3682035328450391,0.37406896885686086,0.1642960911596117,0.049558464886797104,0.042071160661519835,0.017421983091314222,0.00697765392024379,0.1251544232160197,0.5329990300101448,0.3663215095465519,0.3636235829268409,0.2676336812841228,0.48188830780511754,0.35317145667408884
-0.006023761612597709,0.41809476904835524,0.37146774350965095,0.37896216085635537,0.16510564958911575,0.05047111099404921,0.040683749950455914,0.01747285899283143,0.007093810038497876,0.1241836861811739,0.5325008033748854,0.36717066728006864,0.36632091122475796,0.27107814225771687,0.4853830903596194,0.3569904474942295
-0.005903055084961923,0.41745006782500294,0.3746935773403206,0.38377736046711647,0.16590339138894172,0.05138254961417032,0.03933018196190335,0.017529185623450547,0.007213855594179196,0.12321920570212695,0.5318221066978803,0.367977464014445,0.36908688383071586,0.27460479965014095,0.4887908648741662,0.3608257818030198
-0.005783800999023919,0.4166469715570974,0.37787918025297695,0.38850753340013316,0.16668798046956865,0.05229192616583095,0.03801052381948123,0.01759068514405297,0.007337520781505987,0.12226367011835856,0.5309624093016225,0.3687413240632869,0.3719206892418038,0.2782108339049579,0.4921068971677614,0.364672586906115
-0.005666264808886691,0.4156892431327966,0.3810229800278977,0.3931458109299245,0.16745820680222276,0.05319837363966212,0.036724778463233076,0.01765706302482987,0.007464529314365167,0.12131968751658097,0.5299220231420735,0.36946117579193966,0.3748209797691277,0.2818932782393639,0.4953265183427182,0.3685261303109273
-0.005550687048685425,0.41458104663043716,0.38412360747441104,0.3976856637810113,0.1682129652799035,0.054101045135371645,0.0354728917992525,0.017728014871841242,0.007594603275666351,0.1203897645038341,0.5287020952029644,0.3701353552123815,0.3777857908499727,0.2856490056903913,0.4984453721466777,0.37238183822999754
-0.005437284065841981,0.4133267817207892,0.3871797939314572,0.40212103584788855,0.16895121840160598,0.05499914347979455,0.034254759400143116,0.01780323265724386,0.007727468185045581,0.11947627991469867,0.5273045375068213,0.3707615983170268,0.38081255445064155,0.28947470509211193,0.5014596123313939,0.3762352852365442
-0.0053262492477941,0.4119308979214631,0.3901902449787652,0.4064464295799035,0.16967194331094132,0.055891946482150456,0.033070232652714075,0.01788241010071309,0.007862857679891871,0.11858145638920027,0.525731896582531,0.3713371394409584,0.3838981987219107,0.2933668453165634,0.5043660391252417,0.3800821541795632
-0.0052177547021681195,0.4103976950239705,0.3931534907480255,0.41065693682485455,0.17037406432176255,0.05677882652939024,0.03191912428528977,0.017965246985257678,0.008000517664206779,0.11770733268867059,0.5239871662922355,0.37185887007721413,0.38703927872340865,0.29732162715814303,0.507162166516486,0.38391816624235103
-0.0051119533303657,0.40873111578256976,0.3960677139543664,0.4147482112513861,0.17105637266082946,0.057659263435078115,0.030801213244764317,0.01805145223253439,0.008140209796361637,0.11685574019538936,0.5220735499121325,0.3723235091608617,0.3902320964041899,0.3013349223897931,0.5098462151018927,0.3877389818339234
-0.005008981217673006,0.4069345559072467,0.3989305778182413,0.4187163810549188,0.17171744542779394,0.058532849719548086,0.029716248928364164,0.018140745608626784,0.008281714206526743,0.11602828810165758,0.5199941792120408,0.37272776590712015,0.39347279398816287,0.30540219979266614,0.5124170286482063,0.39154007383288975
-0.004908960090526213,0.4050107593231689,0.4017391256342252,0.42255790337385724,0.17235559903221712,0.05939928780395868,0.028663954802908932,0.01823285797884422,0.008424831356674236,0.11522635891785395,0.5177518032049249,0.3730684881582922,0.39675741292264755,0.3095184468992092,0.5148739160781698,0.3953165755506646
-0.004811999104721288,0.40296185428686676,0.4044898214825575,0.42626936457153713,0.1729689094308827,0.06025837893157165,0.027644031462173695,0.018327530077476145,0.008569382979972421,0.11445110942784013,0.5153485087002194,0.3733427889543547,0.4000819119683011,0.3136781191382824,0.5172164241503826,0.39906311921728566
-0.004718195086507563,0.40078949724841983,0.4071787135615225,0.4298472331412723,0.1735552881296301,0.06111000397051547,0.026656159179138297,0.01842450980399776,0.008715212061545038,0.11370347261719115,0.5127856138799972,0.37354814422373095,0.4034421399413255,0.3178751516257447,0.5194440494720607,0.4027737202684467
-0.004627631220439326,0.39849504749812875,0.4098016459928368,0.4332875951852058,0.17411257741793545,0.06195409658746975,0.025700000004341875,0.018523548099714047,0.008862181848438828,0.11298416424741305,0.51006381540264,0.3736824551275522,0.4068337609806072,0.3221030318322865,0.5215559133545989,0.4064417780711518
-0.0045403750631763514,0.39607973107793115,0.4123544714329002,0.4365859663238141,0.17463864229807907,0.06279060959559327,0.024775199445600388,0.018624393497410973,0.009010173902758347,0.11229369967286264,0.5071834907888265,0.37374406968323404,0.4102521328810803,0.3263549016868534,0.523550487057523,0.41006020041710856
-0.004456476626078581,0.3935447856006689,0.41483324916199293,0.4397372934489008,0.17513145222926071,0.06361947555872041,0.023881387740640993,0.018726785470833753,0.009159085237866741,0.11163242007588553,0.504145017208537,0.3737317598082748,0.4136921494012126,0.3306236654046306,0.5254255186456958,0.413621590245996
-0.004375966763908268,0.3908915842140318,0.4172344203287417,0.442736150599281,0.17558914928742203,0.0644405665757828,0.023018180706382122,0.01883044674062001,0.009308824602845423,0.11100052378422708,0.5009490536750619,0.37364465179757905,0.41714809885297127,0.3349020942511658,0.5271782205435314,0.4171184395447242
-0.00429885592250702,0.3881217372988023,0.4195549521924778,0.4455770218185763,0.17601009976049173,0.0652536678271495,0.022185180120853507,0.018935075444410376,0.009459308004493872,0.1103980995125648,0.49759677656347095,0.3734821103836074,0.42061363404806174,0.33918292309477466,0.5288056017226876,0.4205433108787403
-0.004225133280430077,0.385237170785775,0.4217924438291803,0.4482545784364107,0.1763929267567168,0.06605848024516232,0.021381973570446446,0.01904034004623072,0.009610453578396863,0.10982515920846894,0.49409006008707546,0.3732435788119749,0.42408189752750103,0.34345893318714144,0.53030480578856,0.4238889993717477
-0.004154766301164522,0.38224018023422884,0.4239451868524016,0.4507639181510019,0.17673652208060542,0.0668546500804376,0.02060813368025804,0.019145880136523838,0.009762175940263053,0.10928166819964222,0.49043159545673826,0.3729283796643809,0.4275457404402457,0.34772301545883993,0.5316734020938416,0.4271486680826657
-0.004087700694753102,0.37913346006276405,0.42601217622083754,0.4531007548467532,0.17704003640034097,0.06764180919563065,0.019863216641853802,0.01925131284381443,0.009914380425095615,0.10876757050521421,0.4866249448339487,0.372535498539387,0.4309979540748789,0.351968208772344,0.5329096166674187,0.4303159501374062
-0.004023860771334938,0.37592010758722,0.4279930680995261,0.4552615501118321,0.1773028475601505,0.06841961419907641,0.019146759962801404,0.019356241747289383,0.01006695863542465,0.10828280747312209,0.48267452877069794,0.37206342443868506,0.4344314790488597,0.35618770807433336,0.5340124924956836,0.43338501167546767
-0.0039631501551065885,0.37260360182416613,0.42988808392388844,0.45724357987773817,0.17752450774491713,0.06918778070797961,0.01845827938644437,0.01946026596129366,0.010219787393410238,0.10782732831384402,0.47858554849454793,0.37151014461081294,0.4378395789389437,0.3603748382466335,0.5349819719301746,0.4363505706721614
-0.0039054528161041636,0.36918775738018,0.4316978621725188,0.45904493237285243,0.17770467104452187,0.06994611151977301,0.01779726496766963,0.019562988668100766,0.010372731542907264,0.10740109158726002,0.4743638470244849,0.37087330713643657,0.4412159665087382,0.36452299066348365,0.5358188975550453,0.43920786798626754
-0.003850634369386572,0.36567665417699313,0.43342326175656226,0.46066443653732553,0.1778430037542768,0.07069451769928832,0.0171631772171178,0.01966402484589774,0.01052564870920353,0.1070040572296061,0.470015715569049,0.37015046367727655,0.44455487278898864,0.36862552099024587,0.5365249315505757,0.4419525885336071
-0.003798543586813572,0.3620745442614906,0.43506512324378266,0.4621015230513667,0.17793908044954718,0.0714330318479575,0.01655544612975328,0.019763007945880443,0.010678394120610243,0.10663616924547069,0.4655476538448217,0.369339309649629,0.4478510519836674,0.37267560854867365,0.537102397250405,0.4445807322563491
-0.003749014065578101,0.3583857375081296,0.4366239979480402,0.46335602304545914,0.1779922809614661,0.07216181309825066,0.01597347528577705,0.019859595285455403,0.010830824862833528,0.1062973297008328,0.4609660947541467,0.3684378915644232,0.45109971836144697,0.3766660827413595,0.5375540500315885,0.4470884364867395
-0.0037018659996656132,0.35461446862062973,0.43809989746297057,0.4644279122567369,0.17800173073209347,0.07288114366083585,0.015416649657746567,0.019953471944580158,0.010982803458332361,0.10598736510597957,0.4562771140182328,0.36744477172575396,0.454296414769774,0.38058925830017126,0.5378827877349835,0.4494717533186209
-0.0036569080049867466,0.3507647484529434,0.4394921890049101,0.46531701074954684,0.17796632277222252,0.07359141703282004,0.014884344435300791,0.02004435297997873,0.011134200692015797,0.10570598664600855,0.45148619382419997,0.36635914231089806,0.4574368159820985,0.3844368766172022,0.5380913133503855,0.45172639241554235
-0.0036139388091387882,0.3468402064005576,0.4407997124613591,0.4660226826850889,0.17788480661702813,0.07429311824304884,0.014375933627527602,0.0201319838077546,0.011284897637320577,0.10545275113186592,0.4465981577228411,0.36518088312521013,0.46051647355743797,0.3882002133020599,0.5381817973167271,0.4538474876366889
-0.003572748276490085,0.3428439569176486,0.4420210351809058,0.4665436585832658,0.17775589879331427,0.07498679675623633,0.013890798088358981,0.020216138648722057,0.011434786871190013,0.1052270407828519,0.44161731733709597,0.3639105599205167,0.4635305356404482,0.39187029548947366,0.5381556683488766,0.4558295157288035
-0.0035331172932061097,0.33877855869248225,0.4431547208062996,0.46687809121881346,0.17757838696907363,0.07567303287472889,0.013428332655755453,0.02029661698201775,0.011583772900731669,0.10502807603121728,0.4365477302821991,0.36254936295253426,0.46647354756810544,0.39543814131768856,0.5380136554929511,0.4576664397926751
-0.0034948167167608186,0.33464610020019714,0.4441995640707391,0.46702380445683833,0.17735121992502473,0.07635239865974909,0.012987952112130984,0.02037323801016849,0.011731771856202309,0.10485495275432803,0.43139345491889375,0.3610989882866884,0.4693394614391178,0.3988949843157941,0.5377560448091232,0.45935199459024045
-0.0034576059924234007,0.33044836023016233,0.44515478223845834,0.4669786024911952,0.17707358021076455,0.07702541453940473,0.012569095709199654,0.020445833201244785,0.011878710532343127,0.10470668542111819,0.4261587619852193,0.3595614670944893,0.47212186104236825,0.4022324708860713,0.5373830063482672,0.4608799948915956
-0.0034212317898480674,0.3261869766839447,0.44602015578575704,0.4667405562732619,0.1767449370124343,0.07769250764939548,0.012171230053352716,0.02051423703904451,0.012024524881073676,0.1045822467797513,0.4208482971159021,0.3579389506713389,0.4748142842415122,0.40544281957921363,0.5368948947672676,0.46224461951972684
-0.0033854267288175323,0.32186359917785917,0.44679611314986045,0.46630824296790574,0.17636507750813368,0.07835398863778456,0.011793850214652074,0.020578276177974635,0.012169158071604489,0.10448060200875164,0.41546719065090526,0.3562334610209991,0.4774105402754621,0.40851893201348105,0.5362924953590135,0.4634406590459774
-0.0033499081981734798,0.3174800210746988,0.44748375680089925,0.4656809291466827,0.17593411578992932,0.07901006077254073,0.011436478999388044,0.02063775791550868,0.012312558238141395,0.10440073654297784,0.4100211136050292,0.3544466505129979,0.4799049850027003,0.41145444705881123,0.5355772066809862,0.4644637160907312
-0.0033143772733559593,0.3130382871857391,0.44808483039163477,0.464858690831831,0.17545247925456034,0.0796608539755424,0.01109866440806902,0.020692461380795307,0.012454676030228626,0.10434167712515816,0.40451628109033283,0.3525796815589787,0.48229274079341267,0.4142437322295092,0.5347511538032251,0.46531034872559285
-0.0032785177414401214,0.30854077416851156,0.4486016291872782,0.46384246616772695,0.17492087317677213,0.08030646609435986,0.010779975382544963,0.020742136456910917,0.012595462066794615,0.10430250595583425,0.398959406730815,0.35063330681643906,0.4845698502514014,0.4168818090028492,0.5338172291904864,0.4659781495089234
-0.003241995247695915,0.30399024156760207,0.44903685825994466,0.46263403930087715,0.17434022494906573,0.08094700184294662,0.01047999602264729,0.02078651163777756,0.012734864373150093,0.10428236809968873,0.39335761357463284,0.3486080880055377,0.4867333559423953,0.41936421187165535,0.5327790612517026,0.466465755141039
-0.0032044565839098853,0.29938985246587363,0.44939344494986155,0.46123595687310126,0.17371161017175152,0.08158260708480367,0.010198318519709676,0.02082530663718759,0.012872825852296191,0.10428047253911686,0.38771830860168244,0.34650463720260305,0.48878130166342826,0.42168678418719513,0.5316409135058816,0.46677278449789517
-0.0031655291452544346,0.29474316378662957,0.4496743137686088,0.4596513812544832,0.1730361633836464,0.08221349746664701,0.009934535107903809,0.02085824547227826,0.013009281810319356,0.10429608743657443,0.382049029076335,0.3443238249644312,0.4907126543405699,0.42384541707890205,0.530407520012283,0.46689970577025386
-0.0031248205885275443,0.2900540873645254,0.4498821331907677,0.4578838871488781,0.1723149767171225,0.08283998056358605,0.009688230267862603,0.020885068494436502,0.013144157523053559,0.10432853027135895,0.3763572696669483,0.34206694243161445,0.4925271492146071,0.4258357541949164,0.5290838650943448,0.4668476364610755
-0.003081918729240732,0.28532682393558473,0.45001906681217924,0.45593721039306345,0.17154899468061754,0.08346247086753329,0.009458976471422707,0.020905542951116504,0.013277365800333247,0.10437715355535815,0.37065029943426864,0.33973581114529633,0.49422506439500524,0.427652948145583,0.5276749173695827,0.4666180829304244
-0.0030363917174704978,0.2805657731377654,0.45008661715337733,0.45381495955482304,0.17073893244173188,0.08408149713569449,0.00924633624829887,0.020919471700289384,0.013408804477862739,0.10444132681254435,0.36493498047850914,0.337332836907737,0.4958069339717624,0.42929160923989845,0.5261853296195174,0.46621262887690684
-0.002987788531887027,0.27577542342096945,0.4500856472554478,0.45152032566165945,0.1698852592960501,0.08469770181225286,0.009049869183604837,0.020926699753012243,0.013538353747655158,0.10452041543961924,0.3592176220481857,0.33486100674866026,0.49727321153101256,0.4307459954204561,0.524619147327196,0.46563259686182906
-0.0029356398273947685,0.27096022640421674,0.4500165551439855,0.44905589007243013,0.16898825780381818,0.08531183244023863,0.008869140231688699,0.020927118387231755,0.013665873228251678,0.10461375696421266,0.35350393035651256,0.33232383078363653,0.49862392803164296,0.4320103344095935,0.5229796392299927,0.46487877029086816
-0.0028794591640702405,0.2661244606621704,0.449879499316261,0.44642363830021214,0.1680481215444455,0.08592472518843014,0.00870372726488919,0.0209206666550479,0.013791199137548725,0.10472063509810957,0.34779907486830675,0.3297252333278756,0.499858468219302,0.4330791529628807,0.5212693482558245,0.4639513230558419
-0.0028187446335625164,0.2612720989036357,0.4496746061660373,0.44362516575788546,0.16706505286745774,0.08653728082626681,0.008553227342080116,0.020907330193309932,0.013914142970144448,0.10484025186248483,0.34210781310635296,0.3270693999296074,0.5009755944658095,0.43394756523607136,0.5194903179339007,0.4628500091810189
-0.002752980884144912,0.2564067186547293,0.44940213980064597,0.44066195742181063,0.16603934742252233,0.08715043368407745,0.00841726154249091,0.020887137340247504,0.014034492923686649,0.10497169795577897,0.33643460885261184,0.32436058890050135,0.501973695904111,0.4346115067656047,0.5176443680243978,0.4615744934883092
-0.0026816415193278,0.2515315031465996,0.4490626290264161,0.4375356512091269,0.16497146302501717,0.0877651143319227,0.008295478272605164,0.020860152655209525,0.014152017603365164,0.10511392145619215,0.3307837236135836,0.3216029173589833,0.5028511212151147,0.43506790295531894,0.5157333434847632,0.460124686478421
-0.0026041914235863496,0.24664932940373396,0.44865694795354744,0.4342482573655499,0.16386207100923217,0.08838220689334077,0.008187555015589378,0.020826468030693455,0.014266470794799715,0.1052656989788446,0.32515928201392247,0.31880015653752886,0.5036064908841417,0.4353147639231239,0.513759316774833,0.4585010334711682
-0.002520087773408923,0.24176289152977543,0.4481863483899344,0.43080232684077446,0.16271208886611263,0.08900250397289054,0.008093198550700214,0.020786191671951195,0.01437759674469216,0.10542562210699254,0.31956531308250213,0.31595562233100233,0.5042389566466137,0.43535120093686364,0.5117247371675177,0.45670474735437555
-0.0024287788627442913,0.23687481676775704,0.4476524438960846,0.4272010638345496,0.1615226936321924,0.08962667065783507,0.008012143722115955,0.02073943529604071,0.014485135803804111,0.10559210913804412,0.31400577043137934,0.3130722259783382,0.5047483985144792,0.4351773632826977,0.5096325229385964,0.45473797688005696
-0.002329701430933412,0.2319877618282532,0.4470571470093559,0.4234483800321101,0.1602953161664222,0.09025523621383275,0.007944150880928532,0.020686299966116525,0.014588830272577933,0.10576343575692737,0.3084845350559854,0.3101526390847184,0.5051355525645875,0.43479429807506126,0.5074860946102666,0.45260390537740935
-0.002222277652592873,0.2271044877064503,0.4464025626736498,0.41954889041189836,0.15903161709802868,0.09088861941801157,0.00788900215946574,0.02062686292307695,0.014688430244279023,0.10593777206303366,0.3030054048824421,0.30719947873308473,0.5054020656826679,0.4342037390471667,0.5052893497274155,0.4503067778723305
-0.0021059122692656225,0.22222791209033188,0.4456908422978377,0.4155078528025216,0.1577334458290407,0.09152717241047709,0.007846496763124664,0.02056117159754537,0.014783699202616865,0.10611322039172977,0.29757207525656515,0.304215463769176,0.5055504765522058,0.4334078335775789,0.5030465818634355,0.44785185775209313
-0.0019799899884403484,0.21736113932846393,0.44492400408832167,0.41133105549702775,0.15640278450982126,0.09217122640301947,0.007816445481504505,0.02048924895185095,0.014874419103511784,0.10628785286759634,0.29218811433239406,0.30120353118215326,0.5055841252177331,0.43240881995340896,0.5007623485994644,0.4452453171304535
-0.0018438732735911057,0.21250746874170134,0.44410372634073253,0.4070246591183798,0.15504167935792132,0.09282113330860385,0.007798664628341748,0.02041110624504049,0.014960394656596585,0.10645974784352603,0.2868569368185508,0.2981669091511101,0.5055069964059137,0.43120868938351803,0.49844129502187134,0.4424940678008451
-0.0016969006403561033,0.20767038279749392,0.4432311401378028,0.40259500050152863,0.15365216204653165,0.09347730194106363,0.007792969619492331,0.020326756927026058,0.015041456523034047,0.10662702421676963,0.28158177883597024,0.29510914550906464,0.5053235043378479,0.4298089366330825,0.4960879407739331,0.43960554198061297
-0.0015383855589894211,0.20285351729339177,0.442306697529709,0.3980483675616495,0.152236164139653,0.0941402275586765,0.007799168991402988,0.020236229106085732,0.015117463163448221,0.10678787248055942,0.27636567579870047,0.2920340925235088,0.5050382289128806,0.42821053429542566,0.4937064398292252,0.4365874338417188
-0.0013676160423456226,0.19806061619939833,0.44133019323899403,0.3933907561354614,0.15079543584916125,0.0948105136906277,0.007817061003129787,0.02013957614103961,0.015188301103520034,0.10694058128237302,0.2712114443247232,0.2889458509033087,0.5046556148104933,0.42641414464979593,0.49130034331732003,0.4334474140188587
-0.0011838549728753458,0.1932954741750487,0.44030092468503623,0.3886276533624649,0.14933149941535914,0.09548888538838605,0.007846434588194196,0.020036885050162625,0.015253883434356493,0.10708355822924673,0.26612166829120243,0.28584867772498856,0.5041796611978541,0.4244204393219688,0.48887244878677744,0.43019283699502486
-0.0009863411927517494,0.1885618700012596,0.43921790363886387,0.38376394995911567,0.14784566353782294,0.096176193279911,0.007887073640363104,0.01992828250986234,0.015314146428377017,0.10721534371570819,0.2610986883380992,0.2827468644526358,0.5036136861317402,0.42223040688100616,0.4864248197751059,0.4268305034913965
-0.0007742913499025463,0.18386349425049664,0.43808005688182583,0.37880403920367306,0.14633908649360527,0.09687340806723263,0.007938762203738793,0.019813938304071792,0.015369044226578935,0.10733461665604088,0.25614459345507956,0.279644592349075,0.5029602829790747,0.41984560795900666,0.4839589562374159,0.42336658428675833
-0.0005469024611375516,0.1792038744689057,0.4368863961809888,0.3737520266062636,0.1448128533146586,0.09758160538996109,0.00800128922682831,0.019694066176686505,0.015418541636410049,0.10744019118072047,0.2512612128052999,0.2765457788509931,0.502221488323667,0.41726836882800433,0.4814760183482738,0.4198067415218624
-0.0003033551235255262,0.17458630398546052,0.43563615067186356,0.3686119447558648,0.1432680462235078,0.09830194127037421,0.008074452596243472,0.019568922130637198,0.015462605167361879,0.1075310036036228,0.24645010567678938,0.2734539547630875,0.5013990497637019,0.41450190732479947,0.47897703456551827,0.4161563516267747
-4.2817278386600536e-05,0.17001379156710572,0.43432885590430087,0.36338793481667475,0.1417058031015539,0.09903561865098542,0.00815806238988555,0.01943880030491151,0.015501192725720269,0.10760608927437743,0.24171254742070347,0.2703722340626189,0.5004946848811379,0.41155038815922906,0.4764630740664043,0.4124207221008695
0.00023555161727227187,0.165489055242038,0.43296439524749103,0.35808438984398666,0.14012736257367003,0.09978384582367136,0.008251943311254702,0.01930402664186091,0.01553424433615458,0.10766454928749265,0.23704950943018843,0.26730339330299596,0.4995102951574641,0.4084189078179701,0.47393537872710384,0.40860526654712526
0.0005325967183961805,0.16101456194854472,0.4315429910402134,0.3527060567766936,0.13853409477941436,0.10054778782120323,0.008355936286792437,0.019164950628579515,0.015561679024728704,0.1077055074116761,0.2324616316117541,0.26425000456651854,0.4984481283645884,0.4051134123323737,0.47139545147052897,0.4047156353803407
0.0008491658658106949,0.156592586819921,0.4300651447710459,0.34725809569578536,0.1369275174009969,0.10132851358876573,0.008469899226542968,0.01902193545550115,0.015583400714457765,0.10772805801149583,0.22794918650512003,0.2612145617339856,0.49731088516254707,0.4016405539746451,0.46884509949422476,0.40075780186040394
0.0011861105739432705,0.15222526805699096,0.4285315276206869,0.3417460966440773,0.13530929701487945,0.10212695109361572,0.008593706964802213,0.01887534698063716,0.015599309761008344,0.10773120703848646,0.22351204380853268,0.25819957928444426,0.49610176790287563,0.3980074953599095,0.4662864325410448,0.3967381051561223
0.0015442887984851899,0.14791465039721408,0.42694282481838647,0.33617605591484384,0.13368123631222775,0.10294387329908662,0.008727250411631233,0.018725541917736496,0.015609315362551104,0.10771381869687151,0.21914966262779373,0.25520766045113774,0.4948244718754492,0.39422167136421127,0.46372181792830486,0.3926632539204541
0.0019245678580266817,0.14366271705001618,0.42529953936519027,0.3305543151759411,0.13204524817907684,0.10377992521015267,0.00887043495783735,0.018572856662660443,0.015613346949976528,0.1076745965128658,0.21486113202626536,0.2522415330968389,0.4934831213625582,0.39029052064991976,0.46115379545290675,0.3885402952757062
0.002327826900170422,0.1394714104038713,0.4236017719414674,0.32488746805043456,0.13040331802741867,0.10463567498200699,0.009023178185244337,0.018417600549760105,0.015611364076891808,0.10761211551876243,0.21064524646309313,0.24930405321494675,0.4920821548023444,0.38622121025339246,0.45858495649852427,0.3843765551153083
0.0027549588177166098,0.1353426421975074,0.4218490395392209,0.31918223978447186,0.1287574561128938,0.10551166786854525,0.00918540694104203,0.018260057006758944,0.01560336437452547,0.10752488688009183,0.2065005913998985,0.24639817744322312,0.49062616505245266,0.3820204226005892,0.45601779265680253,0.3801795562028197
0.0032068715448956716,0.13127829417500106,0.4200402369644208,0.31344534636969223,0.12710964185460502,0.10640847510955746,0.009357053839902426,0.018100491203394645,0.015589389204488954,0.10741142797951095,0.2024256284209196,0.24352690733244048,0.489119702136258,0.37769430731330317,0.4534545199206108,0.3759569206929113
0.0036844886894594558,0.1272802105052115,0.41817377826779784,0.30768333993465147,0.12546176238096676,0.10732673600849969,0.009538053260545092,0.017939159661086862,0.015569526729730073,0.10727032740496657,0.19841877666816957,0.2406932092883857,0.48756704691592473,0.37324861965392586,0.45089688500868164,0.3717162634443094
0.004188749482173344,0.12335018343583087,0.41624783600591136,0.3019024520657977,0.12381555255744908,0.10826719162156002,0.009728336904980496,0.017776318925028674,0.015543912227322529,0.10710030244233093,0.1944784873264555,0.23789991505894523,0.48597197132107234,0.3686889479535017,0.448345984118234,0.3674650818949847
0.00472060804942763,0.11948993377021107,0.4142605832279596,0.29610847086467984,0.12217255685896862,0.10923070870449128,0.009927828989359344,0.01761223256737478,0.015512725581381495,0.10690024687425645,0.19060330802775294,0.23514961075983187,0.4843375396901143,0.364020930741352,0.44580217361926944,0.363210647396532
0.005281032036056232,0.11570108780279306,0.4122104017193493,0.2903067100218168,0.12053413429523288,0.11021829284207824,0.010136441498201754,0.017447176390768586,0.015476186015065422,0.10666926718831674,0.18679193437088948,0.2324445411680612,0.4826660484070243,0.35925043090498915,0.44326513114101157,0.3589599018416943
0.0058710006230342695,0.1119851523305146,0.41009604651842674,0.2845020867157246,0.11890150219298419,0.11123109001009582,0.010354070943973316,0.0172814417778125,0.015434544241558474,0.10640670568833825,0.18304324624841511,0.22978657937651897,0.4809591416944393,0.3543836627864526,0.44073402272225115,0.35471936225738343
0.006491501997869505,0.1083434892791341,0.407916758582407,0.2786992537150939,0.11727579416278201,0.11227037618324674,0.010580598280927986,0.017115337208095667,0.015388072329173871,0.10611214946825734,0.17935632730458528,0.22717728412122218,0.4792180236882538,0.349427270370376,0.4382076924896923,0.3504950348660252
0.007143530343920188,0.10477729141180964,0.40567231980867996,0.272902726679602,0.11565811413031903,0.1133375349952416,0.0108158918757906,0.01694918803689327,0.015337051679471454,0.10578542472894875,0.17573046657629596,0.224618005409338,0.4774436725020768,0.34438835691380215,0.43568483567887406,0.346292340978192
0.007828082418641514,0.10128756322958192,0.4033630473064027,0.2671169872580448,0.11404958113950221,0.11443402386769432,0.011059811895262193,0.01678333469534434,0.015281759877698082,0.10542657647318192,0.1721651421489325,0.22210998913324467,0.47563702283561854,0.33927446841116615,0.43316414706342915,0.3421160655556126
0.00854615379028888,0.09787511568915999,0.40098972672234207,0.26134656021572933,0.11245136370881517,0.11556132943994575,0.011312214851077695,0.016618129527876457,0.015222459339285576,0.10503583417788216,0.16865998744579946,0.21965446247052556,0.47379911162316757,0.3340935350965011,0.4306444409951346,0.33797034707481166
0.009298734798573165,0.09454057831859683,0.39855348739804514,0.25559606397801826,0.11086470291094383,0.11672091353811162,0.011572957933001447,0.016453932526746724,0.015159393428119453,0.10461356459095068,0.16521474151813884,0.21725269688330506,0.4719311825844888,0.32885377669183796,0.4281247400719975,0.3338587121284703
0.010086806298073214,0.09128441986830807,0.3960556250083405,0.24987023508831233,0.10929092375877883,0.11791415130352888,0.011841903027687247,0.016291106254101177,0.015092792662584995,0.10416021330706209,0.161829185372937,0.21490604661958634,0.4700347469885089,0.32356357826775684,0.4256043302991691,0.32978413387901595
