EMG01_right_gast_med,EMG02_right_glut_max,EMG03_left_gast_med,EMG04_left_glut_max,EMG05_right_glut_med,EMG06_right_bic_fem,EMG07_right_rect_fem,EMG08_right_vast_lat,EMG09_right_vast_med,EMG10_right_tens_fasc_lat,EMG11_left_glut_med,EMG12_left_bic_fem,EMG13_left_rect_fem,EMG14_left_vast_lat,EMG15_left_vast_med,EMG16_left_tens_fasc_lat
-0.0002596739194303865,-0.03942597156237022,0.00637456252515569,0.0211723144099468,-0.05799630545259122,-0.05438275726192203,-0.025065694221790565,-0.019140099948219944,0.007899229971057839,0.04286813088031417,0.02341670586720639,-0.0017542732263747009,0.023683313936721767,-0.03857798009350533,0.30149932259204876,0.0246853697394501
-0.00022253541380628345,-0.03685422707576266,0.015717745863702986,0.03391075954620969,-0.051221174815240064,-0.04641709755425637,-0.021490638628055725,-0.014368265283281913,0.009041414340799274,0.043220938371098826,0.025102388911611397,0.0005966346967301383,0.026420486273541457,-0.03098012642162649,0.2992567604446686,0.027144618011369276
-0.00018626251531539132,-0.034306270781348173,0.025025401669874457,0.046534891703527266,-0.04450833471856976,-0.0385116500264715,-0.017883641002718012,-0.009651337048173258,0.010228904779930884,0.043594429273609535,0.026759298656793645,0.0029402021660407474,0.029171922352383525,-0.023472455098741844,0.2970004839018163,0.02958950749711474
-0.00015094220168367783,-0.03178613885256811,0.034284539443434604,0.05902648487401265,-0.037868165900891065,-0.03067908714576949,-0.014247816404652981,-0.004996593808638337,0.011462360968085826,0.043988945367541624,0.02838454988153332,0.005273709652890495,0.03193448265072166,-0.016067612914055365,0.29473314088297303,0.03201688458148099
-0.00011665771515385175,-0.029297621892296836,0.04348271907588539,0.07136753939186555,-0.03131059684345808,-0.02293139023906167,-0.010585942075148626,-0.00041107850968133267,0.01274249730448588,0.04440485252068802,0.029975324133678764,0.007594492810534751,0.03470518341926812,-0.008777649147065898,0.2924570214398057,0.034423574535001035
-8.348739677774706e-05,-0.02684420566610566,0.05260823835508964,0.08354037150507898,-0.024844969031392765,-0.015279628448651146,-0.006900375032202224,0.004098510564671669,0.014070095508789727,0.044842543046299047,0.03152893572898477,0.009899975938495911,0.037481267866507094,-0.001613790467242216,0.29017413611998566,0.0368064040313308
-5.1503884483599613e-05,-0.024429029791837045,0.06165025006483225,0.09552771253146075,-0.018479931361351676,-0.007733802763431253,-0.003193005059306004,0.008525922213621688,0.015446009478311233,0.0453024251271115,0.033042892385874614,0.01218770642458359,0.040260249811423524,0.005413737670350553,0.28788638371257885,0.03916222979044781
-2.0773678267104654e-05,-0.022054862983525037,0.07059881422037988,0.10731281930610198,-0.012223366401270355,-0.00030276180532155594,0.0005347603010354086,0.012865433615822314,0.016871163221221293,0.04578490217097857,0.03451493831113357,0.014455385036344316,0.0430399276488356,0.012295826011789732,0.2855956894310677,0.041487966853130866
8.642964383472801e-06,-0.019724093456282506,0.07944490073221253,0.11887959475823973,-0.0060823474835301665,0.0070058141578452976,0.00428198218867822,0.01711190870268067,0.018346542741048813,0.04629034564734221,0.03594308156925753,0.0167008906965307,0.045818372272698006,0.01902453609057447,0.28330407979262995,0.04378061549640808
3.6691844378078056e-05,-0.01743873285750364,0.08818035660544653,0.13021271483457672,-6.312538966376506e-05,0.014185366789047502,0.008048152400791334,0.0212608325585696,0.019873182917786437,0.04681907038902222,0.03732560766263338,0.018922298507561545,0.04859389310229261,0.025593098939693196,0.28101369860848985,0.04603728648407396
6.332439388317752e-05,-0.0152004318823401,0.09679785030941437,0.1412977558018662,0.005828856996254048,0.021230358728459776,0.01183313556623346,0.025308321610658,0.021452150568948114,0.047371327028126055,0.038661081314491946,0.021117889985117252,0.05136498676582783,0.031995863752734714,0.27872677082393027,0.04825522418688323
8.849704911006682e-05,-0.013010505796647236,0.10529080264005546,0.1521213143747363,0.01158892374225052,0.028136126909901363,0.015637096160036158,0.029251110061125272,0.023084524875171,0.047947317581543795,0.039948338148731215,0.02328615471001692,0.05413027277941315,0.03822820266112076,0.2764455220070947,0.050431826945426
0.00011217046513422049,-0.010869968094325017,0.11365331068629374,0.16267111215051974,0.017213100652550096,0.03489869986500832,0.019460415034781773,0.03308651375081608,0.024771376522778995,0.048547223744351206,0.04118646777745156,0.025425782909029578,0.05688842044096933,0.044286378391975016,0.27417206235069735,0.05256466392589497
0.00013430861494908225,-0.008779570490304998,0.12188006929478691,0.17293607553402943,0.022698028335414618,0.04151458949321389,0.02330360112096369,0.036812373368285044,0.026513749039197752,0.049171235116603554,0.04237478970010025,0.027535648816769145,0.0596380792119393,0.050167382256639,0.27190824877134917,0.05465148763976853
0.00015487781230792678,-0.006739847537587034,0.12996629183103056,0.1829063827305015,0.02804085651073905,0.04798058046512899,0.02716721405499157,0.04042697950961806,0.02831264880381572,0.04981957258520947,0.04351282319430733,0.02961478503490497,0.06237784096268011,0.05586875011854728,0.26965556382979344,0.05669024125670482
0.00017384574122208688,-0.004751164262917072,0.1379076298124131,0.19257347042349476,0.03323912292092397,0.054293577771119386,0.031051827902815354,0.04392898258352688,0.030169046539009578,0.05049250591049867,0.04460025217736697,0.031662348477326734,0.06510625324754069,0.061388364017455885,0.2674150793345178,0.05867905985059041
0.00019118073403498936,-0.002813765297994752,0.1457000895202117,0.20192999435308537,0.038290620659186876,0.0604505818765968,0.03495804953055761,0.04731729094927771,0.03208388465007822,0.05119036490828087,0.04563688590551674,0.03367757885381689,0.06782186639893431,0.06672426364164856,0.26518753399558015,0.060616264789633494
0.00020685161843944378,-0.0009278208310198652,0.15333994264659845,0.21096974007082234,0.04319326873596279,0.06644878818859963,0.03888656625018765,0.050590960924094645,0.03405808352183356,0.051913543966914937,0.04662261627995592,0.035659750980904424,0.07052328503062137,0.07187452999186429,0.2629734739634193,0.06250035060892203
0.0002208281648992502,0.0009065433130822315,0.16082362750658605,0.21968748253831402,0.04794502763084809,0.07228573564668489,0.042838191198390246,0.053749093421732556,0.036092544459521016,0.05266249997172493,0.04755737246155514,0.03760812909163343,0.07320921103209571,0.07683729487888173,0.26077339262984817,0.06432996388808894
0.00023308181221604217,0.0026892434764589227,0.16814763754101544,0.22807879580105983,0.052543900535986156,0.07795944237879508,0.046813895509706625,0.05679077563625976,0.03818814922014653,0.05343774398502375,0.048441074758679314,0.03952194461577318,0.07587847586865347,0.08161084993099317,0.2585878460828205,0.06610387389626021
0.00024358637503185614,0.00442025939348452,0.1753083961794672,0.2361398165528008,0.05698800866311266,0.08346850949979193,0.05081482635885872,0.059715097136092396,0.04034575629865131,0.054239827254284584,0.04927359697430331,0.04140041183343968,0.07853006137410223,0.0861937829465274,0.25641753989013244,0.06782093505242129
0.0002523186401317538,0.00609966310069901,0.18230214009453685,0.24386696785376785,0.06127569215469973,0.08881218992755138,0.054842310665258236,0.0625212199855605,0.042566194333364296,0.05506932229319764,0.05005475435165557,0.04324276816934697,0.081163108694098,0.0905850982479068,0.25426338445997826,0.06948004157054789
0.00025925883689725354,0.00772764515750178,0.18912487152477536,0.2512566742292348,0.06540560357931229,0.09399042071964601,0.05889784493217495,0.06520846107157106,0.04485025316054448,0.05592679988664422,0.05078432399719849,0.045048317984978055,0.08377691545431151,0.09478431042164272,0.2521265177832027,0.07108007500265216
0.0002643909706164079,0.009304535574130864,0.19577242078238666,0.25830516497239425,0.06937678448269706,0.09900381900862218,0.06298307231257835,0.06777636546725506,0.04719867316948247,0.05681280291477215,0.05146208395151125,0.046816471392666495,0.08637092158641906,0.09879150904275674,0.25000829584712636,0.0726198523786089
0.0002677030108697581,0.010830819035482225,0.2022405856347604,0.26500847565571334,0.07318872219741218,0.10385364309576943,0.06709974854101448,0.07022476633136018,0.04961213368232227,0.0577278179168102,0.05208785448933759,0.0485467763511206,0.08894468455467355,0.1026073931243949,0.24791025238919673,0.07409809775770047
0.00026918693082491295,0.012307144173490197,0.20852529237104464,0.27136264230703555,0.07684138486670428,0.10854172159004527,0.07124969882000162,0.07255382976857931,0.05209124110085817,0.05867224892531005,0.05266153576028123,0.05023894260969103,0.09149784497986661,0.106233275173148,0.24583403087163835,0.07551345656657087
0.0002688385969695007,0.013734326808013878,0.21462275462718478,0.2773639776230736,0.0803352334754878,0.11307035460392384,0.075434768081654,0.07476408361560899,0.054636517524523816,0.059646405100837546,0.0531831405665333,0.05189285641271383,0.09403008385593682,0.10967105582567077,0.2437812925647798,0.07686454364313022
0.0002666575126497938,0.015113347246501048,0.22052962167105947,0.28300934072245515,0.08367121057197943,0.11744219191697305,0.07965676725290792,0.07685642966287695,0.057248390452988546,0.060650509579675306,0.05365282111630022,0.05350858526966255,0.0965410727065459,0.11292317106444438,0.2417536054109238,0.0781500020305067
0.0002626464227312315,0.016445341902610742,0.22624310734369102,0.2882963713414371,0.08685070626895654,0.1216600936686233,0.08391742148474816,0.07883213935707498,0.059927184049045776,0.061684722047399575,0.054070888700794455,0.05508637252222035,0.09903041813980208,0.11599251492522225,0.23975231956593385,0.07936855996471977
0.0002568107906854065,0.017731589658260643,0.23176109095969907,0.29322367937301463,0.08987550299305391,0.1257269797282266,0.08821833401733395,0.0806928335404304,0.06267311226155665,0.06274916377469864,0.054437825419879196,0.0566266218745152,0.10149760790656355,0.11888234138290439,0.2377784540612016,0.08051908244377513
0.0002491581633767381,0.018973493547671538,0.23708218222028493,0.29779098259707465,0.09274770126700667,0.12964569224953107,0.09256097742250254,0.0824404472570066,0.06548627390613733,0.06384394107740257,0.05475428732419862,0.058129872475976584,0.10394197844216403,0.1215961497144994,0.23583265119462057,0.08160061521518265
0.00023969744267263873,0.020172558480392844,0.24220574356310362,0.30199918768426176,0.09546962952755371,0.13341892985775902,0.09694670621275751,0.08407718108337052,0.06836664958695417,0.06496916679274249,0.05502109864113556,0.05959676553657318,0.10636272140500892,0.1241375580705225,0.23391523194077016,0.08261241921281652
0.00022843817310429985,0.021330365836659083,0.24713186529093786,0.305850411961552,0.0980437415684888,0.13704928815962727,0.1013767735467167,0.08560544081074953,0.07131410013122293,0.06612497935560986,0.055239237093595066,0.06102800379245664,0.10875892171325245,0.1265101739328923,0.2320263128687948,0.08355399376614724
0.0002153901554354237,0.02244854585709422,0.25186129117105627,0.3093479458800365,0.10047250744509194,0.14053936425487762,0.10585234094460151,0.0870277676099982,0.07432836601399019,0.06731155902105834,0.05540981068652587,0.062424305410243935,0.11112960592792831,0.12871748913216632,0.23016592795088478,0.0844250872852073
0.00020056365570064364,0.023528748804902057,0.25639529483175044,0.31249615850525636,0.10275831919601286,0.14389186481638314,0.11037447833383503,0.08834676104259288,0.07740906708902053,0.06852914072102949,0.05553402670590027,0.06378635536484928,0.11347378870036018,0.13076284486108616,0.2283341341052572,0.08522569457858994
0.00018397009098573356,0.02457261785179461,0.26073551002849615,0.3153003505504609,0.10490345320416118,0.14710969557851442,0.11494415438439293,0.08956499875897829,0.08055570182485053,0.06977802297744563,0.05561315402664331,0.06511476470279186,0.1157905140554053,0.132649480616565,0.22653109731526647,0.08595604047046679
0.00016562286381153438,0.025581771382056487,0.26488372052621717,0.3177665614012844,0.1069101084017012,0.15019602958247213,0.11956221769640557,0.09068496799987372,0.08376764518349543,0.07105857223627719,0.05564848013833166,0.06641005594204098,0.11807889013780666,0.1343806260776667,0.22475715700065976,0.08661654992341979
0.00014553815317995024,0.026557801708027313,0.26884162891460195,0.3199013381608729,0.108780487065989,0.15315435247859635,0.124229369974099,0.09170903913008692,0.08704414427988795,0.07237122195511314,0.055641266199875514,0.06767268149583389,0.12033811616556295,0.1359595909411213,0.22301286718911395,0.08720780542184896
0.00012373560707345488,0.027502287156629647,0.27261067077006795,0.32171147592413096,0.11051687630196207,0.15598848413842611,0.1289461328289556,0.09263949524968867,0.09038431102606827,0.07371646578718417,0.055592711157624194,0.06890305997729469,0.12256750048206216,0.13738983748769137,0.22129901391391868,0.08773049290029424
0.0001002389095806638,0.028416807930840844,0.27619197466073064,0.3232037392393377,0.11212171505715719,0.1587025767468149,0.13371281368655616,0.09347859387817431,0.09378711109450417,0.07509484427237713,0.05550394240650171,0.07010161273798758,0.12476646878076877,0.13867503393039451,0.21961660911758063,0.08818533798722382
7.507619977468108e-05,0.029302959549131886,0.27958649493967647,0.32438460403038866,0.11359764437387158,0.16130109039431295,0.13852948339537055,0.09422863048745,0.09725134952014425,0.07650692458076992,0.055376037943167936,0.07126879450725929,0.12693456179408397,0.1398190874325118,0.21796686214495062,0.0885730356987333
4.8280324611575127e-05,0.030162362339019158,0.28279523245726457,0.32526012017605577,0.11494753933739507,0.1637887479455962,0.14339597415442942,0.0948919931645484,0.1007756569397879,0.07795327306126919,0.055210064432422094,0.07240511731094836,0.1290714219916424,0.14082615652437766,0.216351130640133,0.0888941878184535
1.9888914293116216e-05,0.03099666682145275,0.28581945254970204,0.32583596802040915,0.11617452197415723,0.16617047160034787,0.1483118903084627,0.09547120695075043,0.10435848406921418,0.0794344206252046,0.055007114367776166,0.07351116719050102,0.13117676912074872,0.14170064345926653,0.21477085329927623,0.08914927881609391
-1.0055724473808338e-05,0.031807555020223206,0.28866086669714364,0.3261176509828169,0.1172819551545669,0.16845130407424982,0.1532766185552747,0.09596896678803503,0.10799810844046567,0.08095082274971717,0.05476833643975483,0.0745876135860658,0.13325036473824906,0.14244716779887892,0.2132274674608623,0.08933870697427446
-4.15068943804423e-05,0.032596737921313824,0.2913217691373726,0.32611071424845295,0.11827341832824143,0.17063631770142496,0.15828933075080007,0.09638815840954167,0.11169264987591063,0.08250282437516576,0.05449495806423464,0.0756352115710929,0.13529196622169368,0.14307052318045357,0.21172231492507657,0.0894628486939393
-7.441396196013551e-05,0.03336594948135364,0.2938051220994676,0.3258209363010273,0.11915266663252909,0.17273051499335892,0.16334897723352276,0.09673186692263445,0.11544008948466625,0.08409064969205655,0.05418829940768333,0.07665479741450144,0.13730127109872503,0.14357561976785307,0.21025653967684618,0.08952212576142975
-0.00010872296248103226,0.03411693773299821,0.2961145860320217,0.3252544830477968,0.11992357554154781,0.17473872840902555,0.16845426954165804,0.09700337323635543,0.11923828963791376,0.08571442654965873,0.05384977865934424,0.07764727818536504,0.1392778528856111,0.14396741531124838,0.20883099339486305,0.08951706413408649
-0.00014437733033181787,0.03485145365043402,0.29825449407628085,0.32441802144033277,0.1205900737403608,0.1766655431498454,0.17360365210473971,0.0972061388655987,0.12308501350803727,0.08737423228601507,0.05348090872012454,0.07861361629342153,0.1412210980734492,0.14425083802380853,0.20744618935656622,0.0894483420922263
-0.00018131867536943678,0.0355712385142894,0.30022977290232034,0.3233187911304253,0.12115606730028236,0.17851527718121038,0.1787952692872595,0.09734377998949761,0.12697794260555434,0.08907014344319095,0.053083285882009786,0.07955480996965614,0.1431301719846917,0.14443070462537302,0.20610233308662973,0.08931682604135151
-0.00021948734949438968,0.03627801054824779,0.30204581471634095,0.3219646342848724,0.12162536163553267,0.18029202469401506,0.18402694751298596,0.0974200319408789,0.1309146906723818,0.09080228210145289,0.052658571439281474,0.08047187073221629,0.14500403628345127,0.14451164507080647,0.20479940482783832,0.08912359275577779
-0.0002588224519754108,0.03697345158824308,0.30370830760435313,0.32036398515774184,0.12200160068922923,0.18199973013810405,0.18929620865541658,0.09743870554980313,0.1348928122986787,0.09257085632592102,0.05220846748482877,0.08136579885597807,0.14684150618855996,0.1444980623638977,0.2035372502211227,0.08886993741142818
-0.0002992612156287229,0.03765919449042591,0.3052230332714262,0.31852582233519944,0.12228825176432243,0.1836422604526782,0.19460030769916248,0.09740363695242023,0.13890980472759573,0.09437619227638228,0.05173468838581123,0.08223755777563302,0.1486413195370712,0.1443941476057416,0.20231565947824667,0.08855736733737009
-0.00034073809441005246,0.038336811964026614,0.30659564256829497,0.3164595876874837,0.1224886418763254,0.18522346499389852,0.19993627843814493,0.0973186326044472,0.14296310149738725,0.09621875573755166,0.05123892959139086,0.08308804821247856,0.1504022030786694,0.1442039329145776,0.2011344312933043,0.0881875819980009
-0.0003831838631606385,0.03900780790558542,0.30783144679783025,0.31417507695726804,0.12260601867239483,0.18674722167073257,0.2053009791279922,0.09718741256994098,0.14705005683858943,0.09809916118341494,0.05072283685707417,0.08391808263753418,0.15212293201573235,0.14393135033115992,0.19999341978499674,0.08776244027566106
-0.00042652483748669123,0.03967361252436847,0.30893531555727716,0.3116823075667626,0.12264360859706042,0.18821746831265376,0.2106911346402852,0.0970135636011943,0.15116792008594093,0.10001816698516583,0.050187983681184656,0.08472836048411293,0.15380238036606367,0.14358028141890639,0.19889256336708744,0.0872839166327704
-0.0004706822394473934,0.04033558084102867,0.30991173865113975,0.30899136963135276,0.12260466307762209,0.18963821880258605,0.21610337158611978,0.09680052355333683,0.15531379976693602,0.10197665598720564,0.049635866666118335,0.08551944547085534,0.15543955992792247,0.14315459474368375,0.19783189507125054,0.08675404817143503
-0.0005155717275379886,0.04099499193157643,0.31076499042898204,0.3061122663292119,0.12249249119903705,0.19101356400020533,0.2215342429822642,0.09655160599975,0.1594846174745946,0.10397560137982448,0.049067918886355436,0.08629174982106463,0.15703364592109842,0.14265817054940116,0.19681153447481903,0.08617487495796522
-0.0005611031014862383,0.041653047085790026,0.31149930076232263,0.3030547497071189,0.12231047793774666,0.19234765794085992,0.2269802393262636,0.09627004723504817,0.16367705773641575,0.10601601855274655,0.04848553006421367,0.08704553144891343,0.15858398775758603,0.14209491246404962,0.19583166199685295,0.085548378598601
-0.0006071801840943905,0.04231086787456015,0.3121189938110996,0.29982817240466464,0.12206208764411504,0.19364469021268174,0.23243778341946617,0.09595905432954112,0.16788753485408506,0.10809890437734776,0.047890063602434266,0.08778090411247254,0.16009010385140307,0.14146874655992853,0.19489247690039216,0.08487643435466993
-0.000653700874237737,0.04296949612891212,0.31262858912566377,0.29644140727673696,0.12175085307989958,0.19490884578060616,0.23790320691219216,0.09562184680619988,0.17211219892435853,0.11022516961843079,0.04728286750859772,0.08849785419071872,0.16155165989614081,0.14078360853561997,0.19399414085922126,0.0841607997571455
-0.0007005573576383199,0.04362989621204771,0.3130328633173457,0.2929028744688652,0.12138035090729371,0.19614425383532572,0.24337270731735874,0.09526169091390736,0.17634697890721554,0.11239558448227725,0.046665279097852806,0.08919625900924245,0.16296843060477825,0.1400434201735995,0.1931367093996,0.08340314494736133
-0.0007476364555838193,0.04429295828215336,0.3133368726322882,0.2892206461774444,0.12095416506809875,0.19735492749435568,0.24884228511486317,0.09488192569777272,0.18058764267258873,0.11461076708970244,0.046038623719422384,0.08987590560769293,0.1643402455004643,0.1392520565476832,0.1923200538984441,0.08260510304139868
-0.0007948200867018663,0.044959501183705466,0.31354593866142094,0.2854025677310132,0.12047583996601706,0.1985446963706825,0.25430766151056644,0.09448598030812527,0.18482985967804982,0.11687122253436487,0.04540420808550661,0.0905365101102809,0.16566691994846866,0.1384133057035142,0.19154378446016063,0.08176831812054015
-0.0008419858134725026,0.04563027416589596,0.3136656010102668,0.2814563629790571,0.11994882575500188,0.19971713466530708,0.259764190020391,0.09407738224123863,0.18906926117986247,0.1191774076104989,0.044763309070214585,0.09117773769618179,0.16694817320592967,0.13753082271079634,0.1908072025263494,0.08089448327544135
-0.0008890074434888076,0.0463059568707918,0.3137015419603846,0.2773897179829744,0.11937642324729593,0.20087549712256467,0.2652068034703063,0.0936597564634224,0.19330149514366687,0.12152979479317559,0.04411715907583697,0.09179922296540646,0.168183542537853,0.13660808128877316,0.19010931125479583,0.07998536755855261
-0.0009357556549442841,0.0469871571394191,0.31365948893705403,0.273210342372575,0.11876174876450156,0.20202269138712003,0.27063003604930574,0.09323681563212874,0.1975222730335907,0.1239289253650174,0.04346693036684509,0.09240059027430794,0.16937232286648696,0.1356483338480076,0.18944887587051026,0.07904283124432318
-0.0009820985360770062,0.04767440632165945,0.31354510094679616,0.26892600853005366,0.1181077392536596,0.2031613029419229,0.27602811067521604,0.09281234188880903,0.20172740577981835,0.1263754485722738,0.042813724158219005,0.09298147339262468,0.170513567762206,0.13465459946194835,0.18882450120564293,0.07806882936135902
-0.0010279017801652645,0.04836815286007316,0.3133638450877972,0.2645445694878695,0.11741719299086267,0.20429365191186633,0.2813950523202237,0.09239016095285996,0.2059128264532758,0.12887014432459218,0.04215857076459069,0.09354153363094486,0.17160615310411984,0.13362968743876674,0.18823470414491414,0.07706540401686947
-0.0010730283917391472,0.04906875767581552,0.3131208688195516,0.2600739570580728,0.11669282233771361,0.20542185286887085,0.2867248025403747,0.0919741094872423,0.21007459750707524,0.1314139277346905,0.0415024402201265,0.09408047542305761,0.17264886974450236,0.1325762401864605,0.18767797442725012,0.07603466655382773
-0.001117338108100377,0.04977649581037364,0.3128208799783822,0.25552216223447116,0.11593730167616836,0.20654786696347158,0.29201132663376317,0.09156799692619491,0.21420890086934227,0.13400783468665972,0.04084625625252186,0.09459805823957255,0.17364051635194136,0.1314967760446132,0.18715282168008407,0.07497877103936704
-0.001160686812073288,0.05049156501826032,0.31246806580357017,0.2508972003169034,0.11515330532208948,0.20767354469517424,0.29724870799636355,0.0911755631446729,0.21831200967973527,0.13665298857855215,0.04019090777911393,0.09509410367221846,0.17457998246146678,0.13039372523247292,0.18665780702632198,0.07389988095601681
-0.0012029260285469747,0.05121409831971807,0.3120660851437288,0.2462070634949297,0.11434353384535348,0.20880065786118995,0.30243122445216997,0.09080043643053695,0.22238024103837437,0.13935054935591445,0.03953725605454839,0.09556849657212382,0.1754663183225142,0.12926945782704366,0.18619155812089302,0.07280013123707496
-0.0012439025057584259,0.05194417779347022,0.31161812844688713,0.24145966379724831,0.11351072773828388,0.2099309194877263,0.3075534017699436,0.09044610481424782,0.22640988976450724,0.1421016468861207,0.03888613713541998,0.09602117925407383,0.17629878851923644,0.1281263029767549,0.1857527670288114,0.0716815885302152
-0.0012834578782294885,0.05268184834236141,0.3111270045034812,0.23666276936815,0.11265766793320872,0.21106599085044692,0.31261004023232536,0.09011591567983852,0.23039714382468657,0.1449073015683722,0.03823835962980244,0.09645213799077047,0.17707690685603666,0.12696655886733613,0.1853401709337677,0.07054621783184445
-0.0013214284052402998,0.05342713057137141,0.31059522289994895,0.2318239369820228,0.11178716325178296,0.21220747503114631,0.31759621097546953,0.08981310252451206,0.23433798276712187,0.14776834692448615,0.03759469799501541,0.09686138130919827,0.17780045063924607,0.12579249327950398,0.18495251624792294,0.0693958702879014
-0.0013576447768225764,0.05418003189307327,0.3100250646693246,0.2269504435629585,0.11090202544952017,0.21335689683519038,0.3225072198417154,0.08954082251182152,0.23822807462922874,0.15068539139675538,0.036955881917977176,0.09724890995182489,0.17846945322248614,0.12460633490516215,0.18458850726161385,0.06823229788124426
-0.0013919319785080033,0.054940554996743336,0.30941864141037906,0.22204922204053415,0.11000503307428543,0.2145156693061751,0.32733853764989745,0.08930219161885511,0.24206271809858707,0.15365884400263416,0.03632258482250338,0.0976146787601989,0.17908417449183422,0.12341025591157738,0.18424674100840704,0.06705718148104366
-0.0014241092064014897,0.055708702884382254,0.308777943237904,0.21712681695545644,0.10909888586351991,0.2156850475152229,0.3320856970474072,0.08910031328849863,0.24583687152177505,0.15668898055422137,0.03569541937870534,0.09795855120574792,0.1796450498162013,0.12220634655238623,0.18392563050926938,0.06587215627075695
-0.0014539898254031342,0.05648447978816669,0.308104875833247,0.21218938061956336,0.10818615570922543,0.21686607076366962,0.336744157419943,0.0889382997152673,0.24954525325430857,0.1597760129910731,0.03507494577673875,0.09828025526936976,0.18015261884356265,0.12099658291079769,0.18362332968713593,0.0646788290820556
-0.0014813813653358223,0.05726788743563652,0.3074012866351452,0.20724271099542146,0.10726925221711354,0.2180594948073201,0.341309140650611,0.08881928522617433,0.25318246786689275,0.16292014606259458,0.03446168881728601,0.09857936476701101,0.180607436348222,0.11978278911424474,0.1833376963764422,0.06347878724095025
-0.001506085552058031,0.058058916315667924,0.30666897990824665,0.20229230761160982,0.10635042461947106,0.219265726312628,0.34577546137467857,0.08874643157911741,0.2567431323368655,0.16612161763501415,0.033856156412446714,0.09885532300910785,0.18100996809144046,0.11856660098786699,0.18306632168150047,0.06227359902408861
-0.0015278983730287825,0.05885753181274971,0.3059097201182241,0.19734342402110525,0.10543180079179464,0.22048479260321244,0.3501374241798553,0.08872292537122335,0.26022199454515715,0.16938071985644357,0.033258856062705414,0.09910749515762078,0.1813604862140219,0.1173494494998687,0.1828066080271713,0.06106480629360031
-0.0015466101789168598,0.05966365531063632,0.30512522279429166,0.19240111065200485,0.10451544231119782,0.22171636975532677,0.3543888584639573,0.08875196810782729,0.2636140394196845,0.17269779933570328,0.03267030833223348,0.09933522642868402,0.1816590057637441,0.1161325774135932,0.18255585944172387,0.059853910302610246
-0.0015620058244269729,0.06047714096662471,0.3043171319301013,0.18747024797528392,0.10360339721489985,0.22295984974300329,0.3585232743725585,0.08883675980853668,0.2669145782050902,0.17607323552577206,0.032091056622644054,0.09953789676283879,0.1819053021139141,0.11491707909790921,0.18231136614722268,0.05864235201812538
-0.0015738648523282426,0.061297753479273354,0.30348698300601157,0.18255557023341903,0.1026977440165269,0.22421441407618883,0.36253406612139166,0.08898047730087778,0.27011931664694283,0.17950739760100415,0.03152167276620089,0.09971496968944951,0.18209899779389813,0.11370394476250763,0.18207047892447237,0.0574314910860532
-0.0015819617245593763,0.06212515951554988,0.3026361509346928,0.17766168025237494,0.10180062493707312,0.22547910000185442,0.3664147141326562,0.0891862485579482,0.2732243983570865,0.183000581224783,0.03096275820273209,0.09986603326632101,0.18223967341575445,0.11249410034600832,0.18183067045154186,0.05622259369210408
-0.0015860661031911116,0.0629589408275009,0.3017657826424853,0.17279305609222229,0.10091426679324793,0.22675285561931102,0.37015897034234724,0.08945712456202244,0.2762264202710346,0.1865529276656042,0.030414940755867117,0.09999083123579014,0.1823269727249148,0.11128844095469433,0.18158958121373073,0.05501683858591386
-0.0015859431819952162,0.06379862183852031,0.30087671458475646,0.16795405047535186,0.10004098855060685,0.22803458068587223,0.3737610188791306,0.08979605021398268,0.27912241790713077,0.19016433875930183,0.0298788672691815,0.10008928289319888,0.18236069271258648,0.11008785655932353,0.18134504807150126,0.053815338074047446
-0.0015813540665348177,0.0646437003224726,0.2999693792986838,0.1631488840648355,0.09918319516684854,0.22932315027656577,0.3772156048867675,0.09020583636043726,0.28190981907129264,0.19383442529433495,0.029355192587413165,0.10016149059602947,0.18234085528314872,0.1088932489556349,0.18109511413643709,0.05261916284668322
-0.001572056141813588,0.06549367640334514,0.29904372502503324,0.15838163374973543,0.09834335799312563,0.23061741902072871,0.3805181251377909,0.09068913788231481,0.2845863656935132,0.1975625224537513,0.028844565559652535,0.10020773433143972,0.1822677576830773,0.10770553933825835,0.18083801922571968,0.05142936329414494
-0.0015578032494085155,0.06634807845765615,0.29809919637210425,0.15365621713140562,0.09752398263738556,0.23191620436061275,0.3836646752465205,0.09124844499284347,0.287150004600517,0.20134776012789288,0.028347612919574692,0.10022845328301185,0.18214199972959233,0.10652566621428311,0.18057217082223262,0.05024698504904134
-0.0015383455457360909,0.06720648454631722,0.2971347997290658,0.14897637439864309,0.09672756579233864,0.2332182481434243,0.3866520497026784,0.09188608862728856,0.28959874918448714,0.20518914948235484,0.027864924322483952,0.10022421486924038,0.18196448679140606,0.10535457377629408,0.18029609613815797,0.049073077995374505
-0.0015134291454728431,0.06806853811206748,0.2961492210122107,0.14434564873467662,0.09595654306145693,0.2345221568385515,0.3894776925690393,0.09260425145621626,0.29193051507582707,0.20908566174440835,0.02739704615969762,0.10019567224154867,0.1817364084310937,0.10419319124855335,0.18000837654207716,0.04790869837854394
-0.0014827957332747008,0.06893395685191316,0.29514095271566587,0.13976736632113934,0.09521323702769609,0.23582632172593573,0.39213959846269836,0.09340497635609929,0.2941429469540502,0.21303629124367912,0.026944488649367423,0.10014351170460077,0.18145919357735116,0.1030424040970927,0.17970756623966874,0.046754904051288536
-0.0014461822266946922,0.06980253390712692,0.29410841304327356,0.13524461689950346,0.09449982989251583,0.23712882946229738,0.3946361653051248,0.0942901701555879,0.296233294623462,0.2170400985129499,0.026507740746171946,0.10006839193493255,0.18113444401455878,0.10190301833811953,0.17939209767331615,0.04561274327800531
-0.0014033205131292882,0.07067413079919783,0.2930500519674847,0.13078023835324395,0.09381838018302328,0.2384273982186024,0.3969660022095192,0.095261603113346,0.2981984122999814,0.22109623011947788,0.026087285020043954,0.09997088155880812,0.1807638488177099,0.1007757204812901,0.1790601881185885,0.04448323787216725
-0.0013539372787174221,0.07154866186851941,0.2919644392476185,0.12637681367590933,0.0931708724127945,0.23971938296130915,0.39912769769877693,0.09632090486412363,0.30003488782921217,0.22520391294401396,0.025683609541919655,0.09985141513444624,0.1803490830880532,0.09966104304934915,0.17870978853095443,0.04336736317085597
-0.0012977539435149457,0.07242607033050827,0.29085032989894083,0.12203668504941294,0.0925592742041157,0.24100185332436042,0.4011195632752524,0.09746955779444255,0.3017392350893138,0.2293624218047182,0.025297216371569103,0.09971029192195037,0.1798916959374532,0.09855935478594337,0.17833861021052214,0.042266032748258735
-0.0012344867121104211,0.07330629643599376,0.2897067033230308,0.11776197798781086,0.09198558702091746,0.2422717055775962,0.4029394157526158,0.09870888896472627,0.3033080899968689,0.23357102058029755,0.02492862645754636,0.09954771801416591,0.17939300968071162,0.0974708844204853,0.17794421368026053,0.041180098944301205
-0.0011638467423650276,0.07418923859238978,0.28853277326063004,0.11355462567393716,0.09145188674625838,0.24352577429389555,0.4045845153301562,0.1000400617718708,0.30473838937101533,0.2378288782613224,0.024578380980302062,0.09936386757712797,0.1788540797716896,0.09639576366993749,0.1775241171158377,0.040110371667422144
-0.0010855404275065762,0.07507471304275526,0.2873279668689556,0.109416389814234,0.0909603523431347,0.24476093035696153,0.40605171040413957,0.10146406854055093,0.30602752589816284,0.2421349625894173,0.024247039382724832,0.09915894237172904,0.17827574350737926,0.09533407117793789,0.1770758998338819,0.03905764624350557
-0.0009992697788593781,0.07596242882828153,0.28609187250392315,0.10534887782560765,0.09051328141968415,0.24597415942239031,0.40733770288631554,0.10298172514297642,0.3071734731111029,0.24648792919458506,0.023935174524628806,0.09893322272190022,0.17765872237794164,0.09428587045787422,0.17659729406968386,0.038022730895197844
-0.0009047328886161276,0.07685199450983866,0.28482415714360837,0.10135355647083044,0.09011309215625136,0.24716261557157357,0.4084393269579354,0.10459366857981742,0.3081748752275106,0.250886057213823,0.023643365556872954,0.09868710819501873,0.17700372877751577,0.09325124035283586,0.17608626183248374,0.03700647035041453
-0.0008016244448793723,0.07774295289111294,0.2835244557575153,0.09743176215573124,0.0897623117088884,0.24832364584735853,0.4093538007775017,0.10630035821827878,0.3090310978548779,0.2553272762186903,0.023372189226778296,0.09842114667580795,0.17631155850988145,0.09223029683587657,0.1755410540939862,0.03600976458064813
-0.0006896362653595981,0.07863482613727192,0.28219223624027057,0.0935847081800483,0.08946355184720971,0.24945478260103138,0.41007894150038443,0.10810208108929655,0.3097422369213257,0.2598092671228744,0.023122210391971112,0.09813605097600771,0.17558316592888534,0.09122320533581633,0.1749602501363259,0.03503358194372899
-0.000568457812227186,0.0795271592824776,0.28082665701490434,0.08981348929381411,0.08921947318061466,0.2505537020613377,0.41061333521694593,0.10999896131034324,0.31030908468422636,0.264329586267441,0.02289397253074411,0.09783270260909663,0.17481971926299608,0.09023018317184796,0.1743427755416618,0.03407896630583382
-0.00043777664920990796,0.0804195581748615,0.27942647050184966,0.08611908395291508,0.08903273984531364,0.2516181491893321,0.4109564550285919,0.11199097334181148,0.31073305324311307,0.26888578269758745,0.022687988993206086,0.09751214285234128,0.17402263446179697,0.08925149209787274,0.173687898025118,0.03314703802581475
-0.0002972788035192251,0.08131172003936382,0.2779900342193915,0.08250235469176241,0.0889059669396326,0.25264583062443274,0.4111087223956514,0.1140779584236887,0.3110160575766647,0.2734754991391822,0.0225047358824592,0.09717555169770493,0.1731935867374226,0.08828742137730981,0.17299520107109528,0.03223898898394847
-0.00014664899983625072,0.0822034551038682,0.2765154284900397,0.07896404703892823,0.08884166904240995,0.2536342792632342,0.41107150903154893,0.11625964319644187,0.31116036167033134,0.2780965513231408,0.02234464769889532,0.09682421573985497,0.1723344998232627,0.08733826221349031,0.1722645361034117,0.031356072111320736
1.442925854205298e-05,0.08309469807840464,0.2750006202290826,0.07550478739484794,0.08884223107648162,0.2545807177592408,0.4108470788958479,0.11853565920695262,0.31116839273669616,0.28274698112312946,0.022208115966433167,0.09645948644646533,0.17144751380392806,0.08640427473238198,0.17149595467458062,0.030499586112037277
0.00018627377536161512,0.083985508686532,0.2734436228742293,0.07212508027131885,0.08890991879169316,0.2554819951626348,0.41043847215638773,0.12090556175727268,0.31104252979295127,0.28742507999336,0.02209548932349638,0.09608273058851531,0.17053493315457735,0.08548564903708135,0.17068962287073625,0.02967085625797875
0.0003692039142297719,0.08487606090422362,0.27184263524353514,0.0688253052626813,0.08904691917496779,0.2563346514272728,0.40984933524757117,0.12336884638883885,0.3107848908033684,0.29212938037362834,0.02200707390417866,0.09569527486447964,0.16959915733711348,0.08458246634607539,0.16984572076886437,0.028871212268191778
0.000563541003272875,0.08576662104378387,0.27019615333516445,0.0656057141232204,0.08925538753569384,0.2571350712563586,0.4090837032505456,0.12592496122196892,0.3103971902714106,0.29685861401729885,0.02194313493925725,0.0952983503853568,0.16864259691194544,0.08369467642659778,0.16896433037275777,0.02810196591023978
0.0007696088593895154,0.08665751530594228,0.26850305013318404,0.062466429280986176,0.089537488184604,0.25787965537944,0.4081457426702444,0.1285733134001721,0.3098807469966867,0.3016116375406344,0.021903900701536704,0.09489305348409931,0.1676675786175465,0.08282210599072434,0.1680453317965718,0.027364395645441065
0.000987734382681508,0.08754908788917583,0.26676261978054394,0.05940744671759647,0.08989542539779613,0.2585649760244788,0.4070394642028557,0.13131326802620102,0.30923663438148985,0.3063873268333499,0.021889568234338054,0.09448034276941339,0.16667625090456434,0.08196449249251261,0.16708835875889513,0.026659746892845622
0.0012182481553446396,0.08844165116909801,0.26497458396923074,0.056428644581879066,0.09033146358799257,0.2591879072832435,0.40576845060316696,0.13414413822069352,0.3084658884638076,0.31118444325574623,0.02190030954681662,0.09406107242028264,0.1656705222328057,0.0811215253364237,0.16609284626875614,0.025989247669088528
0.0014614849650701092,0.08933543341187661,0.263139060012996,0.0535297948393551,0.09084793614476161,0.2597457233076368,0.4043357178281117,0.13706516527712312,0.3075697074450494,0.31600147572636206,0.021936277293654702,0.09363604075639033,0.16465206623763678,0.08029288303997957,0.16505813680658948,0.025354130501603733
0.001717784162039968,0.09023054084191844,0.2612564917370474,0.050710574620228814,0.09144724294803609,0.26023615871844746,0.4027437974088817,0.14007548831530858,0.30654962189013596,0.3208364872624311,0.021997609186674056,0.0932060361950466,0.16362238807394533,0.07947826297017377,0.16398359373205595,0.024755653047180803
0.0019874897520143547,0.09112695485461142,0.2593275459636787,0.04797057618520411,0.09213183707676545,0.2606574273776377,0.40099497563263803,0.14317410333111705,0.3054076298906928,0.3256870425028481,0.02208443045118145,0.09277187500342123,0.16258291341618114,0.07867740239979677,0.1628687023215012,0.02419511511713231
0.002270950126770541,0.09202456545110445,0.2573529789136897,0.04530931550595108,0.09290420170160436,0.2610081976757818,0.39909156447429683,0.14635981505606901,0.3041462928956067,0.3305502695021542,0.022196853760133656,0.09233442982316079,0.16153507124710453,0.07789009001419743,0.16171315519097948,0.023673871733663292
0.0025685173380009282,0.09292322080946168,0.25533347820456587,0.04272623949464132,0.0937668185458594,0.2612875246077513,0.397036143498151,0.1496311970970392,0.3027687894993579,0.33542301170084843,0.02233497624711014,0.09189464835222388,0.16048036161744714,0.07711616742663113,0.16051691944669785,0.023193342016784656
0.002880545832151347,0.0938227753100103,0.25326950083189875,0.040220731949495644,0.09472212960619969,0.2614947410342008,0.3948317592651076,0.1529865848789161,0.3012789261681375,0.34030199620171714,0.02249887340370251,0.09145356199073897,0.15942040604596827,0.07635552071260161,0.15928028358705398,0.0227550138670217
0.003207390581676992,0.09472312996117861,0.2511611656237935,0.037792118310493394,0.09577249403339644,0.2616293125353284,0.3924820760731484,0.15642410978510707,0.2996811056017684,0.345183987862898,0.02268859120103611,0.09101228467484872,0.15835697892269998,0.07560806243009686,0.15800388293182765,0.02236044456036999
0.0035494047581697426,0.09562426349329729,0.24900826395925652,0.03543966934112342,0.09692014553720577,0.26169066204532976,0.3899914738768268,0.15994175749593023,0.2979802550999278,0.35006592239625295,0.022904141309913216,0.09057200251619413,0.15729201903683698,0.07487370503196875,0.15668870314435887,0.022011257504196434
0.003906937769933103,0.09652625277704502,0.246810381866707,0.03316260386834144,0.09816716417668876,0.2616779897213249,0.38736509137394126,0.16353743122273856,0.29618171885042754,0.3549450126421568,0.023145504683693145,0.0901339552172475,0.1562276211473827,0.07415232697805481,0.15533606220971635,0.02170913551323757
0.004280334943964909,0.09742928166825929,0.24456706516601873,0.03096009072406412,0.09951547591462735,0.26159015940351354,0.3846088144216035,0.16720901201523372,0.2942911194163529,0.35981882306575763,0.023412643221414873,0.08969941052806904,0.15516600831991428,0.07344373489237467,0.15394757200391773,0.021455811052315713
0.004669939304203118,0.09833363786184282,0.24227797446392768,0.02883125003799689,0.1009668760146099,0.2614257225063994,0.3817292120585351,0.1709544130807039,0.292314194808314,0.3646853085863124,0.02370551502539898,0.08926963323487333,0.15410948653600395,0.07274763292904274,0.15252508130589215,0.0212530539573093
0.0050760946861226,0.09923969783350482,0.2399430129320053,0.026775154033643396,0.10252305990215098,0.2611830634593349,0.37873342437952595,0.1747716251170785,0.2902566183422272,0.369542815075377,0.024024089840850228,0.08884585031524218,0.15306038381141396,0.07206361696953675,0.15107060273775755,0.021102657189563768
0.0054991493196419735,0.10014790043803037,0.2375624219758042,0.024790827477265125,0.1041856502193571,0.2608605880941868,0.37562900825410017,0.17865874986723213,0.2881238159187329,0.3743900401998643,0.02436836318937846,0.0884292139531482,0.15202097670409911,0.07139119910630679,0.1495862266466081,0.021006421202824792
0.005939459497728966,0.10105871019645779,0.23513684141082888,0.022877248005566553,0.10595621700274316,0.26045689995903276,0.37242374833864883,0.18261401944490852,0.28592082495705134,0.37922595469722226,0.024738368209710287,0.08802076489599156,0.1509934086155299,0.07072984779022114,0.14807402534340333,0.020966137508265464
0.0063973931237667,0.10197257172338105,0.23266733241240392,0.021033347052515916,0.10783629042264962,0.2599709476134213,0.36912544194789054,0.18663579945102457,0.28365226071304395,0.38404968560567787,0.025134184307862014,0.08762140329314361,0.14997961701789522,0.07007902741099961,0.1465359554373507,0.020983573976416862
0.006873332907147419,0.10288985710336077,0.2301553632191846,0.019258012631594764,0.10982736585344072,0.2594021372933445,0.36574166709154865,0.1907225744746247,0.28132240376835566,0.3888603643835307,0.025555941871014842,0.08723187884822808,0.14898130582737193,0.06943823126160797,0.14497378292011254,0.021060468132785993
0.007367678961952568,0.10381081358160338,0.22760275925832552,0.017550094387105517,0.11193090135344702,0.25875040704198116,0.36227956813044154,0.19487291523224173,0.27893534504868295,0.3936569441875339,0.026003822505308753,0.08685280369172102,0.1479999818241703,0.06880700638247117,0.1433890678427167,0.02119853210606029
0.007880850559608603,0.10473553161679114,0.225011620940623,0.015908409734008193,0.11414830790965148,0.25801626022888685,0.35874574526496994,0.1990854273159626,0.2764951237619762,0.3984379973772011,0.0264780545053884,0.08648467638689047,0.14703702794087223,0.06818496916268492,0.14178321672451544,0.021399464428367723
0.008413286794341257,0.10566395148425958,0.22238421376927975,0.014331749769490075,0.1164809330349171,0.2572007582242808,0.3551463097684686,0.20335868226425569,0.2740058370426305,0.4032015404961569,0.026978903537349403,0.08612790463822449,0.14609377678915314,0.06757181101017173,0.14015756818552882,0.02166496196379616
0.008965445940880501,0.10659590161329038,0.21972283654999503,0.01281888452437065,0.11893003848916031,0.25630547375975055,0.35148705351412757,0.20769113240936696,0.271471718679852,0.40794497658704887,0.02750665879876117,0.08578282294153837,0.14517157050572888,0.06696729386949468,0.1385134766192626,0.021996729537214692
0.009537803317442074,0.10753114652584435,0.21702967433068304,0.011368567521364389,0.12149677302789016,0.25533240810601,0.3477736368883347,0.2120810137353489,0.2688971857342504,0.41266519615413744,0.028061615190869704,0.08544970532931197,0.14427180433317113,0.06637123584162517,0.13685238218735063,0.022396486998396078
0.010130847513179806,0.10846943034446818,0.21430666174239835,0.009979539627219324,0.12418214116292985,0.25428387656165563,0.34401174867988893,0.21652625814996626,0.2662868532575901,0.4173587715617382,0.02864405292392006,0.0851287736439066,0.14339595210526382,0.06578348762098422,0.13517586534788512,0.022865973542816456
0.010745074897092123,0.10941051175889116,0.21155541929812255,0.008650532205608151,0.12698696895482464,0.2531623678222585,0.3402072288774385,0.22102445980689406,0.26364551866137764,0.42202216192438274,0.02925421977872741,0.08482020199630252,0.14254557265559503,0.06520390088924355,0.13348568476485234,0.02340694920318053
0.011380982393169502,0.11035418888631437,0.20877730340375839,0.007380269596874909,0.12991187120479847,0.25197038355518736,0.336366151745652,0.22557291934296742,0.2609781184732477,0.42665189693880345,0.029892325211127117,0.08452411822472998,0.14172229707364078,0.06463229017244933,0.13178379810398366,0.024021193522433183
0.01203905929063261,0.11130031285715494,0.20597352878870173,0.006167470968854119,0.13295723156210149,0.2507102669511639,0.33249486829159114,0.23016873646616975,0.2582896612280096,0.4312447321827128,0.030558550014436376,0.08424060324652449,0.14092779765202998,0.06406839535810839,0.13007236587439852,0.024710501516857233
0.01271978109223619,0.11224878940437581,0.203145297138882,0.005010851599441438,0.13612320437591172,0.24938405339325576,0.3286000089486353,0.23480891004567161,0.2555851410266479,0.43579776925855945,0.03125306443997128,0.08396968919397296,0.14016374025703873,0.06351186353230323,0.12835373910035233,0.025476677133365447
0.013423609327347605,0.11319956821487508,0.20029390408452158,0.00390912366586349,0.13940973238590115,0.24799341305596934,0.32468844892277454,0.23949042965033593,0.2528694368387841,0.4403085352782842,0.03197604614116488,0.0837113571432369,0.13943172266690784,0.06296226398028362,0.12663043217983538,0.026321524494319612
0.014150997940175838,0.11415262029877282,0.1974208198820922,0.0028609966272148896,0.1428165682167379,0.24653972118593698,0.3207672400986441,0.24421035450929207,0.2501472029120906,0.44477501753502025,0.03272769461839438,0.08346553509255013,0.13873320495684194,0.06241912654700434,0.12490508278623703,0.027246837301818344
0.014902403204658526,0.11510790412885845,0.19452774178554008,0.0018651772953691339,0.14634329378500843,0.24502420280824616,0.31684351463356764,0.24896587619637192,0.24742276313206713,0.4491956507478582,0.03350824137128037,0.08323209663484477,0.13806945194326964,0.06188198438910632,0.12318040107876554,0.028254386837047313
0.01567829434034956,0.11606532177943657,0.19161661749597286,0.0009203698797747832,0.14998933639949658,0.24344808172278348,0.3129243663308271,0.2537543618156116,0.2447000420977029,0.45356925594559155,0.03431795520569737,0.08301086051880621,0.13744151991593268,0.06135041196810873,0.12145911079366087,0.02934590940302254
0.01647916372192967,0.11702466673287565,0.18868964043309666,2.5276732206643685e-05,0.15375398100426935,0.24181270882876035,0.3090167165439901,0.2585733750736183,0.24198256646694247,0.4578949318166715,0.03515714241266136,0.08280159102257538,0.13685029827090242,0.06082405603719214,0.11974388498287873,0.03052309576842592
0.017305536153531077,0.11798557233539561,0.18574921881900006,-0.0008213995668437021,0.1576363780586501,0.2401196668581197,0.3051271717021813,0.26342067334754016,0.23927352870790433,0.4621719011326853,0.036026141818218546,0.08260399879848708,0.13629657947859397,0.06030265836348091,0.11803728070062755,0.03178758655322779
0.018157976666457475,0.11894748484768908,0.18279792164796202,-0.001620953063964643,0.16163554658075546,0.23837084955700477,0.30126189497809086,0.26829417967117924,0.2365758713855451,0.4663993165863217,0.0369253149795272,0.08241774160773914,0.13578112727096792,0.05978606930851807,0.11634168618081363,0.033140974555255
0.019037096309521197,0.11990967939704926,0.17983840548954325,-0.0023746710831867852,0.1657503719060715,0.2365685142817301,0.2974265446592389,0.2731919294397902,0.23389236112677678,0.4705760320057391,0.03785503205532328,0.08224242417193121,0.13530473170943172,0.059274251802067544,0.11465930422312666,0.034584810327130594
0.019943555436803328,0.12087130685526482,0.17687332670511954,-0.0030838312077499487,0.1699795977362319,0.234715307844784,0.2936263120151762,0.2781119925478372,0.23122564379807822,0.47470036564455326,0.038815654093731417,0.08207759624206147,0.1348682483714974,0.05876727566868816,0.11299217996623999,0.03612060711085522
0.02087806405885069,0.12183144722473675,0.17390524403404836,-0.003749698733051818,0.17432181208439038,0.23281426623921045,0.28986602076229656,0.2830523725931987,0.2285782799141806,0.4787699377049896,0.039807512644830026,0.08192274793789038,0.1344726197140455,0.05826530268295198,0.1113422512339896,0.03774984381835634
0.021841378909669116,0.12278915725719244,0.1709365237468135,-0.004373524620564664,0.17877542677229155,0.23086878957549256,0.2861502288341102,0.288010885674443,0.225952760130294,0.48278167578807485,0.04083088954040574,0.08177730144901414,0.1341188775942492,0.05776856311912253,0.10971139671003612,0.03947396589326897
0.022834296991586844,0.12374350892824572,0.16796927846415868,-0.004956543963062041,0.18333865021066176,0.2288825941790916,0.28248330729326593,0.2929850274792007,0.2233515014424593,0.48673198416861946,0.04188600394588726,0.08164059831509597,0.13380812690625526,0.05727732490786925,0.10810147362531365,0.04129438399608914
0.023857645490072035,0.12469361668033517,0.1650053712303627,-0.005499974951598423,0.1880094533085383,0.22685964431895733,0.27886949288971036,0.2979718628289025,0.22077682540633264,0.4906169831252818,0.04297301276568033,0.08151188171167262,0.133541511269055,0.05679185680199061,0.10651434419175161,0.04321247055920771
0.024912268096542522,0.1256386517735377,0.1620464774753984,-0.00600501831526568,0.1927855285165208,0.22480406646991152,0.2753129138065055,0.30296799491866,0.21823092026647678,0.49443274278712035,0.04409202155030257,0.08139027546416765,0.13332016262440274,0.05631238911123078,0.10495189050844562,0.04522955435267857
0.025999007933542075,0.1265778425996774,0.15909416614975957,-0.006472857186686736,0.19766424689093515,0.222720049357494,0.2718175894231965,0.30796963491195745,0.21571578935562055,0.4981754861680472,0.04524309793995145,0.0812747686063143,0.1331451374215843,0.055839083317209895,0.10341601814921998,0.047346913279034654
0.02711868899862284,0.12751046040182024,0.15614997177512946,-0.006904657330342148,0.20264262976482797,0.22061173329447148,0.26838740611648654,0.31297272782288504,0.21323318847298864,0.5018417527795738,0.046426282813633764,0.08116421848704328,0.1330173482346147,0.05537202711148699,0.10190864909387104,0.04956576567059897
0.02827210272872558,0.128435790476289,0.1532154496915038,-0.007301567657940201,0.20771735177899275,0.2184830924940861,0.26502607215671115,0.31797308373561245,0.21078456095848425,0.5054285155223917,0.047641597895055586,0.08105737597234992,0.13293751595107858,0.05491125862703548,0.10043170507191476,0.051887260391911764
0.029460007702859226,0.1293530895918496,0.15029221359120373,-0.0076647208123461355,0.21288477238932835,0.216337825430496,0.2617370556024633,0.32296649507443687,0.20837099543266427,0.508933245183662,0.04888904951019737,0.08095292370226267,0.13290617128173737,0.05445680518927383,0.09898708273274404,0.054312466051539714
0.030683142920178184,0.13026153101225085,0.14738195525312908,-0.00799523327656765,0.21814097999632495,0.21417929392307222,0.25852350971225135,0.32794883456316554,0.2059932340626405,0.5123539187554079,0.05016862837979183,0.08084951794150028,0.13292370478184734,0.054008721563024525,0.09757662232818377,0.05684235966669893
0.03194224756494763,0.13116014341232543,0.14448644714988565,-0.008294204517979341,0.22348183814823383,0.21201054487678359,0.2553881972185005,0.33291612898721984,0.20365172956362207,0.5156889698733363,0.05148030550273472,0.08074583009324382,0.13299043635505076,0.053567122477789615,0.09620207178457038,0.05947781598977144
0.03323808117335399,0.13204776475951066,0.14160752926798592,-0.008562715357834231,0.22890303004659487,0.20983439571107493,0.2523334418665709,0.33786460455236034,0.20134672253184996,0.5189371818779227,0.052824024335122434,0.08064058597200577,0.13310668023149524,0.05313220835379177,0.09486505037454454,0.06221960012917135
0.034571441962491435,0.13292303945991618,0.1387470820364098,-0.008801826195267677,0.2344000988454688,0.20765353672450268,0.24936113567807672,0.34279070050954663,0.19907831664231868,0.5220975262368305,0.054199689588748684,0.08053260085809585,0.13327279740209502,0.05270428345582344,0.09356702321871917,0.06506836493323037
0.035943182373218766,0.13378446338764502,0.13590698768814158,-0.009012575499504967,0.23996848101621707,0.20547062376577477,0.24647279553959223,0.34769104876772794,0.1968465445268514,0.5251689512509765,0.055607153060654745,0.08042080839204963,0.13348923330456752,0.05228376602733721,0.09230930003371332,0.0680246513234146
0.03735422094564369,0.13463045238835697,0.1330890826767755,-0.009195978689279193,0.24560352993989334,0.20328835487938765,0.2436696352312599,0.3525624184190747,0.1946514221920622,0.5281501280064579,0.05704619696330562,0.08030428151576599,0.13375653938792795,0.051871190288686586,0.09109305793562218,0.07108888914721018
0.03880554975910083,0.13545941066422806,0.1302951039362811,-0.009353027430857037,0.25130052691616384,0.20110952915572453,0.24095262807398174,0.35740162542026144,0.19249299018445284,0.5310391783104784,0.05851651663709484,0.08018224392443268,0.13407537805802638,0.05146720050663975,0.08991937362554293,0.07426139784008098
0.04029823682486271,0.13626979013993978,0.12752663361045774,-0.009484689366816025,0.25705467696295864,0.19893708665610257,0.23832255286539863,0.3622054090673148,0.19037134009675988,0.5338334674203533,0.0600177082678349,0.08005407084919657,0.13444651137311714,0.051072537643910704,0.08878925234729182,0.07754238700825707
0.04183342301408259,0.13706013765437083,0.12478505583495228,-0.009591908267675147,0.2628610871391201,0.1967741289747206,0.23578002161657893,0.36697027832175905,0.18828662543243996,0.5365295773024013,0.06154926777533855,0.07991927842845513,0.13487077466292047,0.050688019365621874,0.08770364964324603,0.08093195703275946
0.04341231332773186,0.13782912727316168,0.12207154723143561,-0.009675604578660752,0.2687147256580418,0.1946239207169656,0.23332548852940962,0.37169234087889774,0.1862390563004129,0.5391234822843316,0.06311060043916436,0.07977750142423427,0.13534903694050993,0.05031451440438756,0.0866634852314358,0.0844300997490839
0.04503616255940947,0.13857557561131928,0.1193871072241689,-0.009736676315301373,0.27461036076755907,0.1924898728881905,0.23095924055547187,0.3763671641660195,0.18422887789578668,0.5416108255854017,0.06470103528406013,0.07962845957411992,0.1358821505259575,0.04995291245952811,0.08566964868081517,0.08803669917729338
0.0467062556538596,0.1392984387697177,0.11673260802373052,-0.009776000070311163,0.2805424792320643,0.19037550986717872,0.228681370708504,0.3809897460101511,0.1822563332284396,0.543987196545921,0.06631983968038634,0.0794719134105718,0.13647089267727103,0.04960409092383849,0.08472299691547361,0.09175153216821656
0.04842388331058735,0.13999679029513076,0.11410884259017472,-0.009794431501884557,0.2865051915329618,0.18828442225157213,0.2264917360289274,0.3855546195040913,0.1803216110807088,0.5462483726252829,0.06796623271136128,0.07930761089915664,0.13711590221356115,0.04926888218569739,0.08382434391850468,0.09557426870064564
0.05019031360935219,0.14066978043477893,0.11151656337889615,-0.009792804792785537,0.2924921550910916,0.1862202083775547,0.22438990269334588,0.3900560310961936,0.17842478069474454,0.5483905160139542,0.06963939676261027,0.07913523268601692,0.1378176208703102,0.04894805188382886,0.08297444331963558,0.09950447142295211
0.05200676267931589,0.14131657783354143,0.10895651110465687,-0.009771931342021697,0.29849656342697545,0.18418640770538816,0.22237508778851336,0.3944881240710178,0.17656571701533694,0.5504103163287274,0.07133848677145906,0.07895435888253347,0.13857626261114567,0.04864229931939973,0.08217396482659593,0.10354159389414602
0.05387437340908609,0.14193629567332527,0.10642943318803079,-0.00973259831090648,0.30451121604664577,0.1821864295035343,0.22044612418066684,0.39884510115026095,0.17474403503050379,0.5523050728484072,0.07306263656050416,0.07876447989945978,0.13939182643961967,0.048352278394449784,0.08142346744202224,0.10768497685902655
0.055794212446180776,0.14252791138525786,0.1039360919618632,-0.009675567364316818,0.31052863486436316,0.18022348034198515,0.2186014749427456,0.40312135774936203,0.17295907145401337,0.5540727120247101,0.0748109616802667,0.07856504593646707,0.14026413780989702,0.048078626330676,0.08072337896499006,0.11193384180481467
0.05776728496696757,0.14309020901455738,0.10147726309997618,-0.009601573714584043,0.31654118954334887,0.17830049876329812,0.21683929230729576,0.40731157822873343,0.17120993369417098,0.5557117384835357,0.07658255820732073,0.07835553054168079,0.14119289363582224,0.04782199046281297,0.08007399525845862,0.11628728100695611
0.059794556674608895,0.1436217802214787,0.0990537250746997,-0.009511325532837527,0.3225412162219252,0.176420116565637,0.2151574932116546,0.4114107886820825,0.16949559004731443,0.5572211203173673,0.07837649699480023,0.07813549150803509,0.1421777001407245,0.04758305032444463,0.07947550233947932,0.12074424329188045
0.06187697449749848,0.14412108640666135,0.09666624074420974,-0.009405503776866801,0.32852112291693786,0.17458466207467296,0.2135538318095226,0.41541436138216375,0.1678149657145859,0.558600112057346,0.0801918129580917,0.07790462381424586,0.143218102280343,0.04736253456585453,0.07892801008131654,0.12530351483301072
0.06401548322790082,0.14458654882016597,0.09431553240752326,-0.009284762466066517,0.3344734748995277,0.17279619426784837,0.21202596282716563,0.4193179679096054,0.1661670308683316,0.5598480212002037,0.08202748910371932,0.07766280244276016,0.14431360484289038,0.04716123246261737,0.07843158611388212,0.12996369445748687
0.06621103737206449,0.14501663721639033,0.09200225183894059,-0.009149729413706956,0.34039105368950184,0.1710565418854293,0.21057149352363613,0.42311748015582545,0.16455087743800254,0.5609639264506489,0.08388243517430657,0.07741011332644192,0.14546368575531884,0.046979999986264086,0.0779862857612313,0.1347231658054465
0.06846460774372996,0.14540994640029084,0.08972694692163946,-0.009001007405589874,0.3462668840252607,0.1693673323311226,0.20918802243953738,0.42680882073047477,0.16296578161875164,0.5619463727170027,0.08575546098409728,0.07714687117786494,0.14666780244207914,0.046819760605879134,0.07759217684367656,0.13958007624760405
0.07077718261952748,0.14576525690552739,0.08749003062011616,-0.008839175793106824,0.352094224228381,0.16773000744779193,0.20787316356382898,0.43038776671521456,0.161411249585275,0.5627931299950819,0.08764524837725968,0.0768736235155104,0.14792539227573417,0.04668150116464998,0.0772493583863283,0.1445323346325635
0.07314976356922616,0.14608157668672403,0.08529176658114447,-0.008664792363943807,0.3578665167668176,0.16614582673849063,0.20662455499958876,0.4338497204104056,0.1598870445050314,0.563501149246919,0.08955033450626937,0.07659114079233731,0.14923586822205864,0.04656626332255577,0.07695797252369072,0.14957762891966564
0.07558335635706889,0.14635816150809489,0.08313228178657044,-0.008478394970289023,0.36357729747928497,0.1646158592627757,0.20543985165902823,0.43718950764733483,0.15839319366602686,0.5640667518957799,0.09146911844897686,0.07630039312522383,0.15059861072101255,0.04647513117171904,0.0767182091613595,0.1547134545686668
0.0780789575636495,0.14659451263413817,0.08101159807779144,-0.00828050207419718,0.3692200637878968,0.163140966009237,0.20431670196185073,0.44040131853734366,0.1569299753343031,0.5644859418078759,0.0933998879756211,0.07600251469050529,0.15201295667445378,0.04640921571243086,0.07653030323980785,0.1599371459421217
0.08063753778353719,0.14679035143314983,0.078929666895317,-0.00807161191136131,0.3747881042125466,0.16172177499940824,0.2032527089490203,0.4434788447871792,0.15549788579853524,0.5647547211821816,0.09534085438702318,0.07569875736468475,0.1534781861551812,0.04636963692522077,0.07639452473025111,0.16524590741968503
0.0832600223974827,0.14694557154468524,0.07688639956444393,-0.007852200891089595,0.3802743092392465,0.16035865201546112,0.20224537665729872,0.4464155335790725,0.15409758790299882,0.5648693671875067,0.0972901879734717,0.07539043562591696,0.15499350714017823,0.046357504188879614,0.07631116176735621,0.17063684205866106
0.08594727098888703,0.14706017028943924,0.07488169157828255,-0.00762272194828569,0.38567103352606,0.15905167422757555,0.2012920430295835,0.44920485372995844,0.15272984317305766,0.5648266582778573,0.09924605152532918,0.07507886507070316,0.15655803823863051,0.0463738957786645,0.07628049757706995,0.17610697544377207
0.08870005646644484,0.14713416196580908,0.07291544039066698,-0.007383603130704475,0.39097009861595833,0.1578006200805661,0.20038980380382107,0.4518405321092555,0.15139543035715136,0.5646240409647281,0.10120663018031877,0.07476530292991557,0.1581707890685983,0.046419838136649724,0.07630278207981464,0.18165327229333525
0.09151904486804498,0.14716747849874556,0.07098755650126572,-0.00713524651308659,0.39616294613250874,0.15660498127162986,0.19953544788418454,0.45431674790496235,0.1500950538069148,0.5642597300513288,0.10317015588984112,0.07445091269727838,0.15983063766976785,0.04649628760017011,0.07637819923103209,0.18727264344685562
0.09440477666024738,0.14715988065685684,0.06909796787828315,-0.006878027517944133,0.40124086503138034,0.1554639852857883,0.1987254428084177,0.45662827380867865,0.1488292546614701,0.5637327378570727,0.10513492486583921,0.07413677237908448,0.16153630415459047,0.04660412126907653,0.07650683417106781,0.1929619410619945
0.09735765012340267,0.1471109272815667,0.06724661801055744,-0.00661229470701433,0.406195223280466,0.15437661395406652,0.19795598813080145,0.4587705552711271,0.14759835921336822,0.5630428306866918,0.10709930653255731,0.07382391780631732,0.1632863197214465,0.04674414119557851,0.07668865189366297,0.19871794020049377
0.10037790713989578,0.14702002699077762,0.06543345810195966,-0.006338370088388245,0.4110176775647773,0.15334161248385944,0.19722310997896206,0.46073972158152876,0.1464024944219494,0.5621904136232795,0.1090617427516227,0.07351339576047662,0.16507899019768127,0.046917086976392006,0.07692349963118261,0.20453730547781565
0.10346562140106676,0.14688653885591374,0.06365843410975675,-0.006056549962839703,0.4157003501533556,0.1523574879850555,0.19652276263547427,0.4625325255360351,0.14524165684156393,0.5611763475387563,0.11102073640846714,0.07320631134025764,0.16691235747750405,0.04712364923915491,0.07721113087111428,0.21041654207601093
0.10662068873866726,0.14670987678800843,0.061921469479799124,-0.0057671063098692875,0.42023596302761007,0.1514224970960353,0.1958509239199229,0.4641462117455646,0.14411579592751778,0.560001704907453,0.11297482883346927,0.07290386551372438,0.16878417381248695,0.04736448105106211,0.07755123767978864,0.21635193115068188
0.10984281899194503,0.1464896000194761,0.06022244454173296,-0.005470288690512958,0.42461792085229233,0.15053462796468908,0.19520368072620758,0.46557831703512714,0.1430248879414777,0.5586674734699044,0.11492256596847221,0.07260738182488821,0.17069190741729445,0.04764020700695738,0.07794348166403241,0.2223394561919367
0.11313152856401146,0.14622548568698912,0.058561173595547446,-0.005166326621100513,0.42884033631920204,0.14969159387454326,0.194577301164749,0.4668264097359604,0.1419689941913152,0.5571742240797176,0.11686245366155872,0.07231832173514972,0.1726327806750392,0.04795143003429061,0.07838752074492941,0.22837474597882368
0.11648613262174481,0.1459175803061137,0.05693738374194591,-0.004855432350874146,0.43289799373115206,0.14889085455139203,0.19396829000625546,0.46788778474083825,0.14094830186837726,0.5555218146208508,0.11879290296070298,0.07203828859645388,0.17460382610769043,0.048298736027699476,0.07888303103962149,0.23445306889739398
0.11990573576965675,0.1455662278660095,0.055350705677305254,-0.004537803740701463,0.4367862493185871,0.1481296615052205,0.19337342453064424,0.468759189412114,0.1399631466190108,0.5537092830680014,0.12071217402770537,0.07176902074935655,0.1766019477891576,0.048682696486932776,0.0794297233675573,0.24056938522090376
0.12338922088447053,0.14517207331922838,0.05380068368257925,-0.004213626356590011,0.4405008695745548,0.1474051135670552,0.19278976845062912,0.4694367326855508,0.13901401689581433,0.551735011630934,0.12261834432628316,0.07151237469233375,0.17862398350116912,0.049103869376785216,0.08002735412802978,0.2467184302650127
0.12693523912493576,0.14473604134851772,0.0522867987046513,-0.0038830738472759745,0.44403781172468293,0.14671421463394815,0.19221466229403572,0.4699160561121347,0.1381015410297758,0.5495970536919926,0.12450932387978171,0.07127029965810487,0.18066676494227282,0.04956279845559864,0.08067573052450461,0.2528948019976351
0.13054220712422374,0.14425929140705185,0.0508084935725192,-0.003546306740745981,0.44739295318149425,0.14605393033601644,0.19164568947138452,0.47019266199287274,0.1372264587999287,0.5472934752343299,0.12638290901311733,0.07104480524201272,0.18272717293793478,0.05006001132942994,0.0813747103270045,0.2590930424006003
0.13420831485081666,0.14374315109725394,0.049365195300895295,-0.003203470641660466,0.4505618020625086,0.14542124071253967,0.19108061819497604,0.47026225590202364,0.13638958000800194,0.5448226540812556,0.12823684916144634,0.07083792394496885,0.18480218438724408,0.050596016482765606,0.0821241965564712,0.26530770760229555
0.13793154259857976,0.14318903092473326,0.0479563335264889,-0.002854694560336595,0.45353929117669833,0.14481318600124224,0.1905173204136095,0.4701210467955518,0.13559173315245374,0.5421835255272051,0.13006891187798097,0.07065167061256904,0.18688890764887303,0.05117129951492854,0.0829241276352465,0.2715334219152245
0.14170968447089644,0.1425983242907799,0.046581354694850106,-0.0025000896137740225,0.4563197808086051,0.1442269027920803,0.18995366993750398,0.46976599018148685,0.13483370770734468,0.5393757650961198,0.13187694134195643,0.0704880007713031,0.18898460323552732,0.051786318776011545,0.08377446366819351,0.27776491128306846
0.1455403771125363,0.1419723065202165,0.04523973177086159,-0.0021397481868552495,0.4588972768407653,0.14365964807457113,0.18938742394145044,0.4691949622612772,0.13411619372397798,0.5363999017063426,0.1336589075353694,0.07034877392934591,0.19108668706022736,0.05244150054998018,0.08467516959504733,0.2839970122672475
0.1494211327452708,0.1413120707738798,0.043930969399887186,-0.0017737436228490206,0.46126574733737197,0.14310880911096496,0.18881611265680623,0.46840685601832666,0.1334397224747939,0.5332573573450199,0.13541294349232652,0.07023573557719459,0.19319271405444177,0.05313723387880541,0.08562619598437732,0.29022465356841287
0.15334937509121152,0.14061853845135783,0.042654604594957235,-0.0014021304899951438,0.4634194356266294,0.14257189758612665,0.18823699682112652,0.4674015937909065,0.13280461608440186,0.5299504123381474,0.13713736838538815,0.0701505255262194,0.19530034073920238,0.053873865063753267,0.08662745822326066,0.29644280815548607
0.15732247633005644,0.13989253518978295,0.04141020316448056,-0.0010249454462899175,0.46535313383777405,0.1420465271035337,0.18764712967485947,0.46618005475260366,0.1322109614598279,0.5264820983152456,0.1388306946895979,0.0700947013241165,0.1974072662451359,0.05465169182218296,0.08767881479735053,0.3026464153226578
0.1613377928618959,0.1391348892513433,0.04019735222173851,-0.0006422086987942745,0.46706240461212095,0.1415303737944398,0.1870434855163757,0.46474391974497836,0.13165861494472814,0.522856023878851,0.14049161824163678,0.07006976099655635,0.19951115230359656,0.05547095702445571,0.08878004525928865,0.30883027336073193
0.1653926973633161,0.13834652177714993,0.03901564922936754,-0.00025392602809338756,0.46854374074223293,0.14102112055741559,0.1864230975872545,0.46309543986373947,0.13114722170395918,0.5190761406718615,0.14211899066819797,0.07007715919746306,0.20160952381702035,0.05633184188976368,0.08993082835740276,0.31498890495200227
0.16948460445535646,0.1375285196788912,0.037864688127174424,0.00013990867579750357,0.46979465501406137,0.14051638621683663,0.18578318252184367,0.46123713889044726,0.13067622968436027,0.5151464598741556,0.14371177436855884,0.07011831638090353,0.2036996660071629,0.0572344584853596,0.09113072065114323,0.3211164174815172
0.17361098726687252,0.1366821884661821,0.03674404316829879,0.0005393104415680295,0.47081369542325185,0.1400136489769663,0.18512124623016493,0.45917146289512534,0.13024489095886088,0.5110707310536632,0.14526898097154414,0.07019462120445116,0.2057785658865157,0.05817884135376738,0.09237913578580005,0.3272064239100961
0.17776938228954328,0.13580908328190247,0.03565325154431966,0.0009442999024471894,0.47160038407990423,0.13951019499271602,0.184435166774407,0.4569004384784123,0.12985225084519306,0.5068521341026176,0.14678959491438276,0.0703074267019998,0.20784294129181766,0.059164938089349285,0.09367532598549026,0.3332520817277296
0.18195738018763918,0.13491101745259804,0.03459179890919282,0.0013549000724074546,0.4721550813646838,0.13900312818436597,0.18372325071273585,0.4544254988196665,0.12949713020688794,0.5024931168696459,0.14827248680159982,0.07045804104849987,0.20988934233750095,0.060192598775847005,0.09501837075064949,0.33924622740012184
0.18617260064547433,0.13399004890360877,0.03355911575119386,0.0017711343249947704,0.4724787801064798,0.1384894415541606,0.1829842604786347,0.4517475971058537,0.12917811563013812,0.4979954823798712,0.14971633740921547,0.0706477139688046,0.21191427711891175,0.06126156589464888,0.09640717710314935,0.34518154212419055
0.19041264989874965,0.13304844578710934,0.03255458817785247,0.0021930263751065967,0.47257283757225277,0.13796611646181348,0.18221741158710406,0.4488675241919241,0.12889357104421653,0.4933606600003814,0.15111961307123878,0.07087762000964253,0.21391433230496948,0.062371469483744016,0.097840489134147,0.35105071188659154
0.19467506028506343,0.13208863357729042,0.03157757681350944,0.002620601636262615,0.472438655755812,0.13743022202353336,0.1814223397502783,0.4457862646959159,0.12864166755317,0.48859001826489373,0.15248061218303074,0.07114883999271801,0.21588627894611553,0.0635218310585412,0.09931690130933103,0.3568465697724438
0.19895721193813884,0.1311131266580899,0.030627435953659445,0.0030538888032673526,0.47207734006311003,0.13687900461831273,0.18059903927909673,0.44250530882823524,0.12842041789599842,0.4836851446300273,0.1537975541814728,0.07146234252557766,0.217827157910252,0.06471207399713677,0.10083487275937487,0.3625622128081046
0.2032562457058202,0.13012444803089163,0.029703530130871042,0.0034929211258181315,0.4714894348619402,0.1363099634012373,0.1797477753784981,0.43902689948556767,0.12822770616792478,0.4786480742763434,0.15506867347858805,0.07181896953182323,0.21973434004901604,0.06594153630813328,0.10239274234856632,0.36819108633528613
0.20756900093350364,0.12912504165821603,0.028805247614539852,0.003937737255699303,0.47067487915331446,0.13572090817171298,0.17886897404830956,0.4353542045215824,0.1280613086215654,0.47348146084862985,0.15629230373344435,0.07221943074368496,0.22160555716661073,0.06720948418525603,0.10398874473369744,0.3737270299772616
0.21189202007530447,0.1281171939366113,0.027932010475737977,0.004388381606617092,0.46963321430927885,0.13510999658877632,0.17796309422477125,0.43149140789615104,0.12791890279349624,0.468188684570066,0.15746694877460019,0.07266430713132489,0.22343890107368464,0.06851512599442357,0.10562102750034598,0.37916428063690083
0.21622162419320237,0.1271030008681278,0.0270832809718935,0.004844904187290409,0.4683639174767614,0.13447574854402478,0.17703049334903834,0.42744371748201465,0.12779806290225815,0.46277389582494,0.15859133694606184,0.07315405694517536,0.2252327894050461,0.06985762624431062,0.10728766931010777,0.3844974296107
0.22055402477951408,0.12608440096302845,0.02625856414033486,0.00530735989084312,0.4668667315713943,0.1338170364629699,0.17607132225486832,0.42321729145020764,0.12769624031772406,0.45724199496463863,0.15966445625940726,0.07368901855653959,0.22698589839582303,0.07123611900600875,0.10898669882008705,0.3897213327488986
0.22488544154132886,0.12506324615700395,0.025457406630540913,0.005775807245719408,0.4651419460910049,0.13313305136653591,0.17508550334239295,0.41881908913727606,0.12761072953540867,0.4515985516350276,0.16068556846933002,0.07426940831814427,0.22869706437054194,0.07264972017652213,0.11071611395624668,0.39483097456421323
0.2292122146256335,0.12404137284479509,0.0246793919472957,0.006250306654207039,0.4631906179241391,0.13242324563690505,0.17407280525688454,0.41425665590270955,0.12753863097975235,0.44584966924208497,0.16165420101944575,0.07489531392175655,0.2303651572233806,0.07409753792962502,0.11247390094696037,0.3998212892078036
0.23353090595800066,0.12302065921286316,0.023924132415362346,0.006730918163229391,0.46101472396609033,0.13168725454097838,0.17303296578306313,0.4095378545211357,0.12747684019762104,0.44000180217253415,0.16257011669490581,0.07556668681145869,0.23198893057551492,0.07557868067066008,0.11425805236426607,0.40468694320352566
0.23783838445584404,0.12200306723141062,0.02319125830497876,0.007217698827547782,0.45861724033129764,0.13092479961272901,0.17196581275374911,0.4046705579622824,0.1274220847303133,0.43406153499062045,0.16343326172972555,0.07628334091972439,0.23356687609025065,0.07709226181309281,0.11606658328900009,0.4094221172776947
0.24213189021773215,0.12099066846765315,0.022480404670653077,0.007710699737325818,0.45600214613047,0.13013557872247097,0.170871365768368,0.3996623428780395,0.12737099551909173,0.42803533398496124,0.16424369401014619,0.077044962169957,0.23509715408578422,0.0786374007270443,0.1178975446217052,0.4140203924271599
0.2464090733820766,0.11998565368382282,0.021791196547836143,0.008209962789813481,0.45317435301855924,0.12931916508240848,0.1697499156837596,0.3945202859983654,0.1273201880946039,0.4219292913742275,0.16500149385189156,0.07785112556480764,0.23657765116675591,0.0802132192754541,0.11974903251163478,0.4184748250278878
0.2506680041773282,0.11899032694474358,0.021123235092634855,0.00871551753911286,0.4501395648690415,0.12847496640387673,0.16860207988644568,0.38925096982824414,0.12726634195150488,0.41574892521136636,0.1657066605716927,0.07870131443209576,0.2380061233809784,0.08181883345248789,0.12161919287663357,0.42277816490254505
0.25490715172392364,0.11800708564470987,0.020476091124407538,0.00922737901262402,0.4469040748491924,0.1276022740180777,0.16742883243468648,0.38386067783341166,0.12720627363502887,0.40949913333787147,0.16635901137172943,0.07959493905207549,0.23938035281034,0.0834533397702827,0.12350622003966039,0.426923112600148
0.2591253303552882,0.11703838844109596,0.019849310585632586,0.009745547218255103,0.443474509730144,0.12670036620768563,0.16623150921529323,0.37835565377268726,0.12713699921607982,0.4031843274526287,0.16695812711201638,0.08053135324193007,0.24069828578766073,0.08511579620151498,0.12540834861332814,0.4309025621401988
0.2633216135495959,0.11608671352885465,0.019242427983791534,0.010270007943326432,0.43985753335196326,0.1257686143618423,0.16501178924413254,0.3727423309465703,0.1270557822369789,0.39680865691365624,0.16750338063282266,0.08150986749596316,0.24195814516153064,0.08680519767235195,0.127323837919962,0.4347098137764893
0.2674952169450562,0.11515450998992491,0.018654980807283797,0.010800733910305721,0.4360595334592644,0.12480657194437625,0.16377165410794794,0.36702750412410695,0.12696016385020398,0.390376226615586,0.16799402695403093,0.0825297573794395,0.24315851128187257,0.08852044630723344,0.1292509484364828,0.4383387467362525
0.2716453532826022,0.11424414509694897,0.018086521632956924,0.011337685795144778,0.43208636960193075,0.12381404236499574,0.16251332826580175,0.36121844002830655,0.12684797271180112,0.3838912770509015,0.16842930890377114,0.08359026604963504,0.2442983677621846,0.09026031993057,0.1311879099936897,0.4417839431959112
0.27577106341182184,0.1133578517401258,0.01753662723973733,0.011880813005053403,0.42794330767898703,0.12279112289854914,0.16123920347944984,0.355322925730127,0.12671731318202856,0.3773583225567051,0.16880855356558883,0.08469060002451348,0.24537710965237447,0.09202345081419305,0.13313288172991142,0.44504075647427876
0.2798710537091207,0.1124976868980373,0.017004904450296444,0.012430054188350022,0.4236351797086274,0.1217382230178536,0.15995175101267478,0.3493492576358035,0.12656653147130215,0.37078224566396295,0.1691312531232302,0.08582991762874023,0.24639451335241536,0.09380832810746306,0.13508390409053683,0.4481053184983973
0.28394362118816796,0.11166551812241979,0.016490992585932424,0.01298533746004267,0.41916665850689433,0.12065605682361719,0.15865342543000927,0.3433061767632647,0.126394160486999,0.3641683473500285,0.16939712693408573,0.08700730990595883,0.24735066932970629,0.0956133233777133,0.13703884647871217,0.4509744839495201
0.28798672176881995,0.11086304201235313,0.015994562589789586,0.013546580336178298,0.41454252574809,0.1195456105953589,0.15734656421593138,0.3372027585270589,0.1261988452219385,0.35752235476485933,0.16960616242580032,0.08822177417932979,0.2482458803887708,0.09743672696319214,0.1389953659533652,0.45364571103572693
0.29199813310234957,0.11009181720279287,0.015515313041062061,0.014113689377144883,0.4097678909710508,0.11840808777148416,0.15603329982790792,0.3310482671598152,0.12597925151681424,0.35085038958395454,0.16975863327191892,0.08947218423214826,0.2490805298007011,0.09927678569230362,0.14095090086046336,0.45611688146014207
0.2959756331107113,0.1093532936870161,0.015052963438656676,0.014686559544584678,0.4048483545961738,0.11724483481808563,0.154715522655355,0.32485198610717764,0.1257339692845504,0.3441589014769976,0.16985509422373438,0.0907572704246313,0.24985492495851186,0.10113173870012274,0.14290270663577412,0.4583860647484732
0.2999171627147449,0.10864883286565098,0.014607245268006629,0.015265073278177636,0.399790110746273,0.11605725239514493,0.15339491622568852,0.3186230362039929,0.12546144418228736,0.33745457222625036,0.16989635291606836,0.09207562451122651,0.25056913796994046,0.10299984983607222,0.14484791595862115,0.46045123455244447
0.3038209663144689,0.10797971835511172,0.014177891471350654,0.015849099297277684,0.39459998850570616,0.11484669933166886,0.15207303487723425,0.31237019985980513,0.1251599788241724,0.3307441967555847,0.1698834198830438,0.09342572856801964,0.25122290292625704,0.10487943517323071,0.14678360410957542,0.4623099710065742
0.3076857045584518,0.10734715809371725,0.013764625697577929,0.016438491128442596,0.38928543306717883,0.11361441213512448,0.15075138342944855,0.30610179303231133,0.12482780490920183,0.3240345477296891,0.16981743887586093,0.0948059947079197,0.251815630131379,0.10676888420743777,0.14870685251970014,0.4639592549977453
0.31151053509559196,0.10675227872946993,0.013367154796651438,0.017033085353789154,0.3838544308686559,0.11236147892839571,0.14943148465487405,0.29982563679398583,0.12446318672036961,0.31733223046019327,0.16969960033149284,0.0962148051669053,0.25234652470065627,0.10866667347373489,0.15061480838039903,0.4653954783797372
0.3152951583425368,0.1061961136390958,0.012985168473557955,0.017632699567562336,0.3783153851889972,0.11108888184992335,0.1481149333851137,0.2935491280793158,0.12406452193177536,0.31064353463339595,0.16953104146740874,0.0976505487611652,0.2528147420315275,0.11057137150644289,0.152504738153297,0.4666146694194263
0.3190398267513583,0.1056795861982959,0.012618345783244524,0.018237130020207725,0.3726769506423892,0.10979757414108193,0.14680343656713848,0.2872793467555237,0.12363042820852198,0.30397430349814897,0.1693127434534311,0.09911165158864098,0.25321953169969363,0.11248163432216501,0.15437407285944182,0.4676128125636359
0.3227453175472681,0.10520349008865508,0.012266363941675674,0.018846148921605983,0.3669478365035237,0.10848855277307398,0.1454988390375997,0.2810231437186669,0.1231598123525408,0.2973298704522417,0.16904545722438447,0.10059660000161236,0.25356035460587273,0.11439619090436264,0.15622044314068123,0.4683861620186906
0.32641287034645455,0.10476846848347543,0.011928905701565096,0.019459501369116887,0.3611365897502816,0.10716291282973762,0.14420313519263905,0.2747871953597848,0.12265191960082521,0.29071509666135764,0.16872969776182073,0.10210395413785758,0.25383696839882863,0.11631381850357755,0.15804170227464368,0.46893151482969847
0.33004409238507754,0.10437499390478297,0.011605664143128348,0.020076901862852704,0.3552513836947252,0.10582188188537574,0.14291846709445494,0.2685780264852332,0.12210636162013172,0.2841344757850073,0.16836580945463697,0.10363235065728874,0.25404947762998425,0.11823330792652272,0.15983593558820314,0.4692464320571177
0.3336408352268679,0.10402335095937065,0.011296344742351763,0.020698030593779053,0.3492998781906736,0.10446683382472567,0.14164710987265086,0.26240200565719474,0.12152312271092602,0.2775922477349308,0.16795406348437217,0.10518049377396972,0.25419834667055,0.12015341935627195,0.16160145505101808,0.46932939868261225
0.33720504771690796,0.10371362505779055,0.011000664749735675,0.02132253043930539,0.34328922053689537,0.1030992827377284,0.14039144554949057,0.2562653183793148,0.1209025446813195,0.27109249512935807,0.16749475245380893,0.10674713418032804,0.2542843750722213,0.12207282960988568,0.16333677823541995,0.46917991534728143
0.3407386105777322,0.10344569857934835,0.01071835007830588,0.02195000604823321,0.33722617347933154,0.10172085861054381,0.13915392664611412,0.25017392451632675,0.12024529173150439,0.26463921906026466,0.16698827087723372,0.10833103600727215,0.2543086367029909,0.1239900755116663,0.16504059129229534,0.46879851782624626
0.3442431583840133,0.10321925104854303,0.010449130050469062,0.022580025404535468,0.33111728591398587,0.10033326746145962,0.13793703111460065,0.2441335067713751,0.11955229746035657,0.25823639451876707,0.16643517902011157,0.10993093252400209,0.25427238556717613,0.1259035104060932,0.1667116961031044,0.46818672314912624
0.34771990733083236,0.10303375916354472,0.010192730479561584,0.023212122962023803,0.3249690425701454,0.09893823928505802,0.1367432102913243,0.23814941695528272,0.11882469673703408,0.25188800655070975,0.16583624827761,0.1115454718264944,0.2541769326543631,0.1278112980038181,0.1683489423117364,0.4673469043482945
0.3511695407171938,0.10288849891053903,0.009948866733340424,0.023845803437680783,0.31878797501166883,0.09753746763617188,0.13557483168199846,0.2322266262094473,0.11806374565040745,0.24559806879035959,0.16519248702255257,0.11317316169926188,0.2540234993937126,0.129711448704143,0.16995114549831453,0.46628209881361665
0.35459220637158523,0.10278255491810205,0.009717240594675138,0.024480545946784366,0.3125807323054288,0.0961325495302301,0.13443411846829043,0.22636968587543077,0.11727073304753886,0.23937062643611565,0.16450514660144436,0.11481233959282387,0.25381306562944406,0.1316018783438378,0.17151699330898487,0.4649957580143103
0.3579876155865525,0.10271483730216659,0.009497543410419916,0.025115808360061536,0.3063541117703465,0.0947249463361482,0.13332309503421702,0.2205827068351394,0.11644688910898725,0.23320974599012353,0.1637757078817838,0.11646118922064798,0.2535462637871717,0.13348046944204678,0.17304495517008142,0.4634914487855201
0.3613551813748356,0.10268410277555626,0.009289463140349955,0.025751031723478382,0.300115052132645,0.09331598577044091,0.13224356236623871,0.2148693588843354,0.11559330941892776,0.22711949419494193,0.1630058494278439,0.11811779316723403,0.2532233789514729,0.13534512782219774,0.17453323912987448,0.46177252000557606
0.3646941512627439,0.10268897767111217,0.009092691380555531,0.02638564454197358,0.293870593082255,0.0919068994910573,0.1311971186518811,0.20923288044271554,0.11471092881691394,0.22110390858387746,0.16219739898262167,0.11978019578220138,0.25284445303443753,0.13719383252608758,0.17597982777503296,0.459841797891126
0.3680037229155025,0.10272798127437009,0.008906928625157438,0.027019066692049277,0.28762780657931286,0.09049887122276917,0.1301852085438429,0.20367609134050554,0.11380055896845165,0.21516696194153884,0.16135227044283856,0.12144646248243451,0.2524094315889946,0.13902467711277416,0.17738256969723548,0.45770145907056464
0.3712831412151604,0.1027995477627749,0.008731887387605055,0.027650712697456385,0.28139370624748516,0.08909307761519827,0.12920917551091815,0.19820141461436053,0.11286296054648673,0.20931252277455561,0.16047238891916382,0.12311473142647077,0.25191830234932405,0.1408359006826656,0.1787392836959411,0.45535317009832427
0.37453177608447824,0.10290204503850056,0.008567293012697472,0.028279994080164832,0.27517514178478375,0.08769071718605226,0.12827030697409147,0.19281091378765036,0.11189891533969672,0.20354431364653292,0.15955960676789574,0.1247832551567514,0.25137120868851864,0.14262590727648153,0.18004785674460627,0.45279838965517244
0.3777491808988518,0.10303378882192461,0.008412882166582383,0.02890632048824542,0.2689786855183439,0.08629302711618617,0.12736987060653723,0.18750634163024726,0.11090928645488485,0.1978658689616567,0.15861561729212179,0.12645043019073252,0.25076853338618327,0.14439327265831892,0.18130633127421553,0.45003868349290926
0.38093513173559046,0.10319305053964428,0.008268399146535488,0.029529099305799493,0.26281052745887973,0.08490128837877096,0.1265091408411699,0.18228919235103955,0.10989506543247468,0.19228049350984655,0.15764188808597934,0.12811481301738584,0.2501109494381439,0.14613673788854498,0.18251297838507113,0.44707599526045116
0.38408964797321155,0.10337805778805004,0.008133590295203353,0.030147733469800552,0.2566764161217915,0.08351682029503549,0.1256894149614718,0.177160751548034,0.10885740562672269,0.18679122282998756,0.15663964745669956,0.12977512149787254,0.24939943610751672,0.14785518951099905,0.1836663539837781,0.4439128638900846
0.38721299488378663,0.10358698647099236,0.008008197611127308,0.03076161725616762,0.2505816749054957,0.08214096608304068,0.12491201851539943,0.1721221398230344,0.10779764171202517,0.18140078689463607,0.15560993216956176,0.1314302212515955,0.24863525994627148,0.1495476266048148,0.18476533536322629,0.4405525806763353
0.39030566888157225,0.10381794408484986,0.007891954534036306,0.03137012985325908,0.2445312748427915,0.08077507128578662,0.12417830017541717,0.1671743465746619,0.10671729564883903,0.17611158368647037,0.15455366642148913,0.13307909720334113,0.24781992204199596,0.151213115368699,0.185809136382504,0.43699928186762516
0.39336836603320846,0.10406894404049202,0.007784587008152078,0.03197262661495986,0.23852991766487364,0.07942045712552687,0.12348961655481176,0.1623182513342545,0.10561806986630623,0.17092567564914385,0.15347174086443824,0.13472081104593794,0.24695507419944612,0.15285073229972568,0.18679730013840506,0.43325797538300964
0.3964019343364048,0.1043378720955781,0.007685819433175411,0.032568427976245665,0.23258210223138964,0.07807839083937433,0.1228473078645361,0.15755463102587466,0.10450182878606952,0.16584481352088976,0.15236508123357206,0.1363544459096964,0.24604240808838507,0.1544594973860676,0.18772966882253125,0.42933450303206744
0.3994073101746552,0.10462245394569569,0.007595382275622575,0.033156807753029705,0.22669216883443838,0.07675005492455321,0.12225266563861813,0.15288415262844857,0.10337057011809926,0.1608704744355503,0.1512347048940417,0.13797904000186398,0.24508352252219334,0.15603829904211797,0.18860633129545004,0.42523544223029464
0.40238543929203685,0.10492024519632494,0.007513018860625077,0.03373698648379738,0.22086432174639362,0.07543651919635769,0.1217068940530842,0.14830735180865284,0.10222638760184553,0.15600389961324013,0.1500817640556897,0.13959351195250547,0.24407978343799944,0.15758582119761969,0.18942754974700823,0.4209679535518364
0.405337182635831,0.10522865724233539,0.007438490472570995,0.03430813516058133,0.21510263146755323,0.07413872449432071,0.12121106659870734,0.14382459909770068,0.10107142704354552,0.15124612712603178,0.14890757485773937,0.14119659206674728,0.2430322203333009,0.1591005021816561,0.19019366761451706,0.4165395824496754
0.4082632075091328,0.10554500766671217,0.007371579449619863,0.03486938794127178,0.20941101904610396,0.07285748543571686,0.12076608335241702,0.1394360600897301,0.0999078376129873,0.1465980197536695,0.14771363198169535,0.1427867930875267,0.24194151633266256,0.16058055073796348,0.19090500166373964,0.4119580250248338
0.4111638646744777,0.10586657688466518,0.007312090086940325,0.0354198585586624,0.20379322555638288,0.07159350803015088,0.12037264299345438,0.1351416689212252,0.09873772041103865,0.1420602880222718,0.14650160889731131,0.14436244087717728,0.240808098270901,0.16202400732368438,0.19156172438926472,0.4072308687890015
0.41403905235453575,0.10619066325059276,0.007259847303038811,0.03595865721091456,0.1982527703125105,0.07034741112142341,0.12003124408994476,0.1309411381981891,0.09756307685298803,0.13763350859988424,0.1452733442716071,0.14592174312656683,0.23963227222797914,0.16342881987309235,0.19216376260752918,0.40236533472530156
0.4168880782699918,0.10651463415084073,0.00721469316362757,0.03648490681368303,0.1927929016575005,0.0691197451197725,0.11974221250131548,0.12683400652594748,0.0963857656986999,0.13331813830640254,0.14403081546374016,0.14746286384267537,0.23841435367738834,0.16479291691687173,0.19271076313726135,0.3973680944246759
0.4197095618718316,0.1068359706245488,0.007176481489231326,0.036997757824588515,0.1874165504497944,0.06791100695619504,0.11950573753036246,0.12281970194372203,0.09520748664778163,0.12911452407933485,0.14277610037964672,0.1489839914006149,0.23715477482491182,0.16611427375656718,0.19320214965390617,0.39224525285335715
0.42250143176395233,0.10715230318493624,0.007145070887863603,0.037496400831150786,0.18212630924869366,0.06672165166248818,0.11932190402395197,0.11889760220795557,0.094029798357373,0.12502290931698284,0.1415113292618016,0.15048339808347327,0.2358541649573957,0.16739096982663387,0.19363723276894065,0.3870024976669859
0.4252610238338303,0.10746143675417923,0.007120317492357412,0.03798007611169835,0.1769244535821557,0.06555210106565448,0.11919071661514254,0.1150670851687726,0.09285415487022729,0.12104343709173654,0.14023862823472708,0.15195948935756162,0.23451340087248218,0.1686212356167224,0.1940153246531272,0.381645317998584
0.42798523091922913,0.10776136297140473,0.007102070686517289,0.038448079438271804,0.17181299198080413,0.06440275009545557,0.11911211523911786,0.11132756721992981,0.09168194088828593,0.11717615078277878,0.13896005661115668,0.15341084148844863,0.2331336258218559,0.16980348780015952,0.1943358400623589,0.3761792086682523
0.4306706603943007,0.10805025857473498,0.007090174667720337,0.03889976349230082,0.16679371930950068,0.06327397114993075,0.11908598142622691,0.10767852855356635,0.0905144992690216,0.11342099271443558,0.1376775400836569,0.15483622647776624,0.23171623680805523,0.17093635151212705,0.19459838016159228,0.370609834095632
0.43331378517252467,0.10832646907967182,0.007084474649541385,0.039334534406817424,0.1618682606848297,0.062166116861106895,0.11911213525992635,0.10411952473851402,0.08935315030405443,0.10977780139962326,0.13639280993275546,0.15623462367697988,0.23026284146261092,0.1720186690343891,0.1948027961680087,0.36494314841724695
0.4359110837376957,0.10858847755811048,0.007084824191591181,0.03975184312967395,0.1570381035330232,0.061079521470684996,0.1191903232703461,0.10065018491241398,0.08819920268063164,0.10624630797490466,0.13510737449957688,0.15760521779944836,0.22877518703701946,0.17304949446508386,0.19494923057243885,0.35918547029624864
0.43845916475477975,0.10883485894143477,0.007091091490634528,0.04015117151460277,0.15230461743203422,0.06001450088349358,0.11932019790150376,0.0972701975863443,0.08705395636268903,0.10282613237399105,0.13382254082218692,0.15894738339647102,0.2272550651990891,0.17402807427593864,0.19503813451957666,0.3533435128417066
0.44095487192224153,0.1090642209007591,0.007103163992978416,0.040532013282542446,0.1476690619991795,0.058971351334497525,0.1195012895293864,0.09397928566715459,0.08591869794563131,0.09951677972133632,0.1325394696674748,0.16026065618001262,0.22570419729564573,0.17495381398056625,0.1950702608015583,0.34742437084732336
0.44339536501287896,0.10927513296909855,0.00712095109547428,0.04089385024396314,0.14313258363447215,0.05795034650019559,0.11973297230845538,0.09077717277822911,0.08479468932435998,0.09631763733972588,0.1312592358838078,0.16154469186070874,0.2241241085673289,0.1758262314526945,0.1950466328134209,0.3414354691454334
0.44577817350786075,0.10946605554447109,0.007144384817682929,0.04123612696327663,0.13869620238960267,0.056951732820787915,0.12001443005134874,0.08766354328570852,0.08368315075548141,0.09322797266016232,0.12998288201613364,0.1627992134235446,0.22251602106942894,0.17664489773961103,0.19496849069904884,0.33538447719559467
0.4481012198467264,0.1096353018967279,0.007173418445793044,0.041558234095280595,0.13436079059054842,0.055975722784275324,0.12034463849228995,0.08463799886289539,0.0825852395821534,0.09024693220498557,0.12871146321176305,0.16402394798638717,0.22088082017951186,0.1774093665117647,0.19483721674906748,0.32927919604786526
0.45036281007642665,0.10978106123887618,0.007208023262360709,0.0418595116990302,0.13012704509160108,0.05502248596087262,0.1207223765752394,0.08170002054763784,0.08150202601624182,0.08737354169277509,0.12744608254548762,0.1652185545808922,0.21921911822837986,0.17811909357248765,0.1946542428665837,0.3231274245152006
0.45256159056053596,0.10990146975642293,0.007248183578160587,0.04213927176907319,0.12599545803569806,0.0540921376635369,0.12114625883598591,0.07884895532617263,0.08043446765403015,0.08460670719287944,0.1261879162460464,0.16638254436431296,0.21753137196510353,0.17877335045034565,0.19442094356467687,0.3169368117498993
0.4546964703756967,0.10999469596718565,0.007293890367794941,0.04239682904693653,0.12196629915177597,0.05318472524085448,0.1216147722071131,0.07608403704318271,0.07938338767662505,0.08194521714493931,0.12493822866905165,0.16751520452034915,0.21581800059421205,0.1793711513039727,0.19413852259278527,0.3107147034537041
0.4567665100443159,0.11005902165910533,0.0073451341547863406,0.04263153160871544,0.11803962407565793,0.0523002140056052,0.12212630866395367,0.07340442632616888,0.07834946659655916,0.07938774496084135,0.12369837722037196,0.16861555823051694,0.21407948491295686,0.17991123078633167,0.19380792141509862,0.3044680049260617
0.4587707782978242,0.11009291300338672,0.007401899123301035,0.042842788208988396,0.11421530770258319,0.05143847955136581,0.12267919126306075,0.07080924936142799,0.07733325202331555,0.07693285184877059,0.12246980777407232,0.16968238697338947,0.212316444104353,0.18039209054369132,0.19342979596835733,0.2982031161876958
0.4607081795993501,0.11009507889619094,0.007464161553062769,0.04303009105273745,0.11049308733529431,0.05059931333049682,0.12327169205468401,0.06829762844880573,0.07633517780992237,0.07457898944553769,0.12125404143574903,0.17071430040204613,0.21052968777335043,0.18081208718242409,0.19300457683046784,0.2919259748759746
0.4625772561452366,0.11006451405733741,0.007531893535206343,0.04319303282314383,0.10687260346116778,0.049782440102704974,0.12390204062597442,0.06586870382051262,0.075355581787629,0.0723245018166843,0.12005265376202769,0.17170982088295372,0.2087202419072245,0.18116952713020257,0.1925325736467318,0.2856421681955752
0.4643759838911105,0.11000052501111228,0.007605069370763324,0.043331317015660537,0.10335343442266114,0.04898754004047457,0.12456842236873673,0.06352164667157038,0.07439471829894752,0.07016762638547457,0.11886724774866367,0.17266746608657219,0.20688934854800936,0.1814627556500518,0.19201408008644202,0.27935705104891656
0.4661016286617213,0.10990273776643596,0.007683671776970233,0.043444760908461603,0.09993512419972385,0.04821427046452238,0.12526896595680884,0.061255663776613886,0.0734527651784716,0.06810649338215129,0.11769942203411778,0.1735858258156943,0.20503844003772423,0.18169023732741146,0.19144946376740232,0.2730758429683078
0.4677507454196691,0.10977108676972071,0.0077676968692933545,0.04353329082326939,0.09661720283985828,0.04746228544967221,0.12600171995314177,0.05906999444121191,0.07252982509389354,0.06613912346256166,0.11655073582687242,0.17446363103763443,0.20316908969368244,0.18185062543894628,0.19083923808601896,0.2668037001435455
0.46931932631431655,0.10960578548807329,0.00785715772221386,0.043596929682395404,0.09339919937910347,0.04673125238618372,0.12676461893198865,0.05696390084154961,0.07162592141334281,0.06426342322762625,0.11542267205112357,0.17529981316616594,0.2012829416544044,0.18194281778651264,0.19018411360463616,0.26054576227363585
0.47080302038588706,0.10940727975507777,0.007952086391305254,0.043635777228965576,0.09028064738395918,0.04602086466916088,0.12755544092526166,0.054936653034925564,0.07074098899946368,0.06247718020984219,0.11431660011909714,0.17609355176957917,0.19938162337629978,0.1819659968461816,0.18948502744505227,0.25430717500754024
0.4721973575285384,0.10917618573783795,0.008052534359584763,0.04364998362809196,0.0872610835010539,0.045330849833422435,0.12837176719665835,0.05298751007052031,0.06987486053684847,0.06077806285649413,0.11323373958592763,0.17684430906764004,0.19746664483450524,0.1819196524430212,0.18874314998581998,0.24809308965938623
0.47349795407165735,0.10891321502573409,0.008158571448384402,0.04363971748769416,0.08434003962160051,0.0446609726453634,0.12921096874753998,0.0511156986951245,0.06902725188803316,0.05916363039352943,0.11217512817229046,0.17755184982537484,0.19553929659377559,0.18180358561529478,0.18795986902678002,0.24190864265969247
0.47470069310397356,0.10861908986608049,0.00827028330346486,0.04360513074612948,0.08151702944702206,0.044011032895595846,0.13007023409938007,0.04932039113565106,0.06819775592950646,0.05763135080296667,0.11114160320094889,0.1782162455553272,0.19360058114718987,0.18161789286893126,0.18713675243230493,0.23575891781566852
0.47580187314205896,0.10829445835009767,0.008387767627871816,0.04354632927462825,0.07879153037816296,0.04338085789262329,0.13094662400453777,0.047600685752518024,0.06738585242431878,0.05617862215901608,0.11013380419714829,0.17883786229998883,0.1916512162214932,0.1813629306313578,0.18627549106117583,0.22964889488923848
0.476798319443688,0.10793983736325681,0.008511129382028401,0.04346336459489663,0.076162961742761,0.04277028992288257,0.13183713139336412,0.04595559876270034,0.0665909300040675,0.05480279496307507,0.10915219209693296,0.1794173316777573,0.18969170714130698,0.18103926037475132,0.1853778245048559,0.22358338825854085
0.47768745318203293,0.1075556137827642,0.008640475207494202,0.04335625264136089,0.07363066042564106,0.04217916920001856,0.13273873740836106,0.044384071597039734,0.06581231145499962,0.05350119476580223,0.10819707329811501,0.1799555053298027,0.1877224468134884,0.1806475755686842,0.1844454527599227,0.21756697951208448
0.478467314816387,0.10714210040354277,0.008775907353011092,0.04322500730142826,0.07119385715291018,0.04160731306069645,0.133648460649821,0.04288498716960701,0.06504927787475157,0.052271144423010084,0.10726862171929454,0.1804533933886009,0.18574381019629901,0.1801886123127218,0.18347993743228727,0.2116039491254522
0.47913653929945316,0.10669961307491797,0.00891751802001252,0.043069674212786076,0.06885166252803107,0.041054494234215734,0.1345633968852504,0.041457185420749415,0.06430109043307555,0.05110998527323009,0.10636689787766881,0.18091208808698325,0.18375623296530572,0.1796630461600512,0.18248260786741838,0.20569822225993484
0.47969428222244664,0.10622854305427018,0.0090653863086964,0.04289035946547152,0.0666030724122167,0.04052042637927257,0.135480746738212,0.04009947432021392,0.06356700886746013,0.05001509649589995,0.10549186551445042,0.18133267412241,0.18176027202093747,0.17907138550614118,0.18145451230507267,0.19985335547373612
0.48014009758063947,0.10572941676259341,0.009219579214601308,0.04268725210638559,0.06444699091923772,0.040004765994125856,0.1363978292671722,0.038810636044872025,0.06284630596505272,0.048983911912827055,0.10464340634817809,0.18171612786493954,0.1797566462565106,0.1784138954874161,0.18039644470265923,0.1940725739177569
0.48047376949809434,0.10520294133092012,0.009380155247117638,0.042460639649612886,0.06238225999578996,0.03950712998120414,0.13731207986056065,0.037589428536355794,0.062138277423977914,0.048013933532771405,0.10382133351737037,0.1820632183210525,0.17774625681311512,0.17769059585613414,0.17930902631233853,0.18835883404873624
0.4806951019278532,0.10465003502226047,0.009547168268093497,0.04221091613296259,0.06040768746599808,0.03902711930729175,0.13822103149270976,0.03643458286519901,0.061442246645384675,0.04710274120874657,0.10302540418826864,0.18237444828384214,0.17573018685604289,0.17690133638763492,0.17819279904718383,0.1827148833074455
0.48080367198261986,0.10407184232024524,0.009720670474076498,0.041938582610985556,0.05852207127967197,0.03856434113707547,0.13912227908264424,0.035344797015679455,0.06075756417790642,0.04624799787783608,0.10225533165983854,0.18265007219852325,0.17370968168432255,0.1760459085799493,0.17704830884180398,0.1771433073806719
0.4807985709188616,0.10346973415447709,0.009900714340983574,0.04164424031877468,0.05672421957300154,0.038118426918484806,0.14001342744419673,0.03431872685321103,0.060083601714337485,0.045447449980765386,0.10151079711024061,0.1828901795148949,0.17168611070055373,0.17512415661661002,0.17587617402961092,0.17164656455429267
0.48067821420442625,0.10284529434747841,0.0100873534892969,0.041328577061657816,0.05501296629333724,0.03768904566211566,0.14089202407762283,0.03335497641968406,0.059419740722108955,0.04469892280847224,0.10079146091371648,0.1830948017545296,0.16966091339592326,0.17413607501017422,0.1746771366814121,0.1662270072261009
0.48044032986900664,0.10220029388782793,0.010280642484460553,0.040992347668028485,0.05338718227913662,0.03727591188634903,0.14175548359148976,0.03245209273364471,0.05876535597033216,0.04400031068955699,0.10009697323391784,0.18326401645769982,0.16763553202263837,0.1730818894548188,0.17345209552985752,0.16088689116241736
0.4800821402133814,0.10153665503486982,0.010480635642177914,0.040636349573458866,0.051845781817759166,0.036878787951798435,0.1426010287673317,0.03160856960586667,0.05811979439204046,0.04334956210953379,0.09942698338986322,0.18339804028467127,0.16561133401617617,0.17196211802225134,0.17220211981370612,0.15562837353542
0.47960063795515234,0.10085640752701769,0.010687384959042066,0.04026139477473394,0.050387724823840026,0.03649748077006961,0.14342568490769317,0.030822858646177453,0.05748234988606738,0.042744660033892073,0.09878114731394233,0.18349730827818303,0.1635895282969229,0.17077761057166427,0.17092844408739005,0.15045350115585418
0.4789928636715018,0.10016163929155993,0.010900937332918696,0.03986827949706706,0.0490120148864144,0.03613183312925906,0.14422633674156665,0.030093381831322902,0.05685223853015223,0.042183597885023086,0.09815913229538996,0.18356253669538902,0.16157109183039517,0.16952956508048594,0.1696324447284123,0.1453641906089469
0.47825615169979946,0.09945444404153106,0.01112133127259976,0.039457756530238156,0.04771769352146863,0.035781710119592976,0.1449998186587515,0.0294185420393044,0.05622858683941593,0.04166435179066178,0.09756061814146749,0.18359476733001526,0.15955674221585145,0.16821952050147854,0.16831559951331912,0.1403622022039611
0.47738833476220177,0.09873686800628421,0.01134859332040492,0.03903052218564666,0.04650383103672024,0.035446981355835114,0.14574300779033153,0.028796730451969905,0.05561044319666007,0.04118485379573966,0.09698529390152406,0.18359539185239962,0.15754697546276852,0.16684932667288774,0.1669794322013919,0.13544910975780694
0.47638789886424104,0.09801085779623543,0.011582734422986038,0.038587225429419565,0.04536951446672574,0.0351274998691199,0.14645290832386446,0.028226330426508607,0.05499680676312107,0.040742979192783364,0.09643284938996455,0.18356615537559112,0.15554214216317086,0.16542109271004835,0.1656254445464477,0.13062627073680186
0.4752540817099028,0.09727821615539012,0.011823746613089367,0.03812849089695489,0.04431383306948506,0.034823081124707396,0.14712672315859227,0.027705717616262934,0.05438666135042647,0.04033655813250341,0.09590296091086943,0.18350913918681763,0.15354252591351095,0.1639371161478403,0.1642550385373378,0.1258948084207114
0.4739869099231836,0.0965405815952067,0.012071600637697945,0.037654942942415226,0.04333586189220852,0.034533491272955144,0.14776190942327488,0.02723325630848689,0.0537790079364307,0.03996340498542167,0.09539527082173418,0.18342672333803128,0.15154841094059504,0.16239979584508082,0.16286943602533868,0.12125561897675666
0.47258717269359335,0.09579944061675161,0.012326244958792011,0.037167225501640956,0.0424346439162445,0.03425845238596961,0.14835621496558263,0.026807292133438694,0.053172894182580054,0.03962135224312555,0.094909360863379,0.18332153053525607,0.1495601373079274,0.16081153227062336,0.1614696183299779,0.11670940194420529
0.47105633197687036,0.09505615891942844,0.012587605629802755,0.03666601704594469,0.041609171955673666,0.033997661038355165,0.14890769365441578,0.026426141984516382,0.052567439936992075,0.03930828259823444,0.09444471951004915,0.18319635347219554,0.14757814260787572,0.15917462074556332,0.16005631780978544,0.11225669919902163
0.46939637197412887,0.0943120134182515,0.012855586018713701,0.03615204038133458,0.04085837469614526,0.03375081044288025,0.1494146981846005,0.026088084917124173,0.051961857819911535,0.0390221576756478,0.09400070751385255,0.18305406838848426,0.14560298957477125,0.15749115914159348,0.15863006722424108,0.10789793056067476
0.4676095931650123,0.0935682190281923,0.013130065945918739,0.03562606728483867,0.04018111419986208,0.033517610401043195,0.14987585000063675,0.025791360996113823,0.05135546813812679,0.03876104246912787,0.0935765358688915,0.18289753816652435,0.14363537956193814,0.15576301431458087,0.1571912771715338,0.10363342264379204
0.4656983585619049,0.09282595046790292,0.013410900899526977,0.03508891819132178,0.03957619716535584,0.03329780350728754,0.15028998692132253,0.02553418148005921,0.05074770755815781,0.03852312466043069,0.0931712722759885,0.18272950868409868,0.1416761522927934,0.15399186907036946,0.15574031237114871,0.09946343058709223
0.4636648019647069,0.09208635965491639,0.01369792239284691,0.034541457341415574,0.03904239355459523,0.03309117701708354,0.15065609000612223,0.02531474598229928,0.05013813117863145,0.03830672815479653,0.09278387535557041,0.18255251040733708,0.1397262727078321,0.15217931518089942,0.1542775569575422,0.09538815262535386
0.46151054544644443,0.09135058933608316,0.01399093977967826,0.03398458396666221,0.03857845562433741,0.03289756998641979,0.1509731921129854,0.025131260757914095,0.04952640787253223,0.03811032035157178,0.09241324130258927,0.18236879693840735,0.13778680607506794,0.15032694772340732,0.15280346687466187,0.09140773778119268
0.459236551553848,0.09061978358975578,0.014289743009582072,0.033419220216482345,0.03818313503949989,0.03271687549804542,0.15124027141397958,0.02498195566236454,0.048912309010925345,0.037932512875351466,0.09205825098231982,0.18218034979400477,0.1358588828056256,0.14843644457371877,0.1513186079562506,0.08752228722922951
0.4568432084647039,0.0898950957609447,0.014594105758160269,0.03284629661999119,0.03785519772891215,0.03254903799863557,0.1514561485658907,0.024865098941935674,0.048295690921462,0.0377720557138199,0.09171781329002833,0.18198893773982147,0.133943654617869,0.14650962881057006,0.14982367880817193,0.0837318501153227
0.45433058647891683,0.08917769426284528,0.014903788612797833,0.0322667359229289,0.03759343616708504,0.032394045971821626,0.15161943712523973,0.024779009088051397,0.04767647166715203,0.037627824934789694,0.0913909030088074,0.18179619173278905,0.13204224382588217,0.144548512571826,0.14831951815727848,0.08003641479016918
0.4516987332051093,0.08846876651651779,0.015218542071856262,0.03168143614692339,0.03739667879241419,0.03225192035649769,0.1517285831437153,0.02472206309523544,0.047054602943276354,0.03749880437702396,0.09107659156101222,0.18160366991313381,0.13015568759725818,0.14255532172202273,0.1468070968773365,0.07643589653498999
0.44894793819467904,0.08776952112536153,0.01553810912017143,0.031091255011269792,0.03726379630544157,0.0321226992808865,0.15178196655813295,0.024692700601885404,0.04643003807349995,0.037384061917969474,0.09077406929338884,0.18141290601884225,0.12828487978703954,0.14053250150465582,0.14528749542736275,0.07293012291568164
0.4460789494955385,0.087081188212279,0.015862227162024935,0.030497000876100876,0.03719370463329646,0.03200641981452193,0.15177801436785465,0.024689423558536473,0.04580269898451131,0.03728272110806793,0.0904826582516998,0.18122544018421988,0.12643052145773218,0.1384827041238509,0.1437618679232576,0.06951881790241485
0.4430931339187248,0.08640501770311125,0.016190629122874965,0.0298994345114833,0.03718536440053873,0.03190309768620697,0.15171530275861211,0.024710791253082346,0.04517245157634526,0.03719392911768711,0.09020181477105671,0.18104283197629448,0.12459310399256643,0.13640875989394588,0.14223139449320116,0.06620158781040718
0.4399925752841698,0.08574227523498054,0.016523043570694663,0.029299279189223402,0.03723777681407974,0.03181270892004573,0.15159264284905857,0.02475541071860748,0.0445391027814341,0.03711682319950317,0.08993112161398073,0.1808666564250258,0.12277293701212895,0.1343136341830316,0.14069722392698725,0.06297791622952614
0.43678010763381003,0.085094235313344,0.01685919375387831,0.02869723265810946,0.03734997595154825,0.03173518234526166,0.15140914666783328,0.024821922748447297,0.043902421660890485,0.03705050362038978,0.08967026980852001,0.18069848466825794,0.12097020266754126,0.13220037283494354,0.13916040890833659,0.05984717314434644
0.43345928324001964,0.0844621713426718,0.017198795502136047,0.02809397713556572,0.03752101753790501,0.03167040809425032,0.1511642707827241,0.024908983935890354,0.043262172226119174,0.03699402645507216,0.08941903075253795,0.18053985161232428,0.11918501217364821,0.1300720390680457,0.13762184043512024,0.05680863390828669
0.4300342780588094,0.08384734221353257,0.01754155398644134,0.027490186485350735,0.03774996440241645,0.0316182557288888,0.15085783592711186,0.025015245868843232,0.04261814595136115,0.036946420779923175,0.08917721953776406,0.18039221365854638,0.11741745603062269,0.12793164501088927,0.13608220143372168,0.0538614995931809
0.4265097399460646,0.08325097523945804,0.017887159381057966,0.0268865305796497,0.03803586892425809,0.03157859304308475,0.1504900219610593,0.025139336647579297,0.04197018992504081,0.03690671900998734,0.08894465079061592,0.18025690002525618,0.11566764686213338,0.12578208187844914,0.1345419649127103,0.051004914396466206
0.4228905873461956,0.08267424539189927,0.018235281512566905,0.02628367697009442,0.038377752895686575,0.0315513022110308,0.15006133852102316,0.025279855078340595,0.041318229827815585,0.03687398772890895,0.08872108861099935,0.1801350614752329,0.11393575398281271,0.1236260616814593,0.13300143816284515,0.04823797938904823
0.4191817681663961,0.08211825096919645,0.018585564039704648,0.025682290103360154,0.03877458812682352,0.03153629278895007,0.14957257270822555,0.025435382809825623,0.040662287133309494,0.03684735462197454,0.08850619735695828,0.18002762032040798,0.11222202900779141,0.12146609594734413,0.1314608277019207,0.04555976266077456
0.4153879900776516,0.08158398619304434,0.018937620077770976,0.025083028409137273,0.03922528693822073,0.031533511224338895,0.14902471609758045,0.025604507368532647,0.040002490154598676,0.03682603079530328,0.08829951212810858,0.17993522540976573,0.11052682203319365,0.11930452260135035,0.12992030252971212,0.04296930607600082
0.4115134689581073,0.0810723159271631,0.01929103179371164,0.024486539658640637,0.03972870917718543,0.031542946680516756,0.14841887417650593,0.0257858466289564,0.03933907879558488,0.03680932794473655,0.08810044656231067,0.17985821541687846,0.10885058814872291,0.11714355872555525,0.1283800485314547,0.040465628981977
0.4075618113146402,0.08058396613094239,0.019645354376762403,0.023893455038720663,0.04028368064369422,0.03156463313834546,0.1477561620107291,0.02597807103981495,0.03867240310172896,0.03679667003098302,0.08790833204605583,0.17979659315126617,0.10719388429066473,0.11498535201675218,0.12684031263019488,0.038047729313678946
0.40353610736673784,0.08011953887359038,0.020000122352681077,0.02330438240953504,0.04088901369293716,0.031598647884321804,0.14703759629033636,0.026179922723816466,0.03800291592942027,0.03678759931503052,0.08772246737148391,0.17975001285462136,0.10555735670252218,0.11283202187464683,0.1253014356816567,0.03571458260802848
0.3994391600404978,0.07967954336227627,0.02035485637332446,0.022719899213176274,0.04154352582088662,0.03164510662855463,0.14626401479844886,0.0263902306868447,0.03733116025819997,0.03678177680135825,0.08754216534357138,0.17971778154823953,0.10394171953544883,0.1106856897167147,0.12376387351614575,0.03346513947769845
0.3952737282718724,0.07926442976721587,0.02070906985844495,0.02214054615252069,0.042246055163831855,0.03170415561176768,0.14543606525541636,0.026607921522328302,0.03665775184739416,0.036778977318578536,0.08736679258765688,0.17969887452227992,0.1023477253844753,0.10854849861689066,0.12222820594500422,0.03129832210093695
0.3910427330782885,0.07887462063119839,0.021062275317354433,0.021566824116057575,0.042995472104169666,0.03177596115283309,0.14455426921894346,0.026832025170620655,0.035983358082457714,0.03677907963188187,0.0871958013754311,0.1796919640607519,0.10077612881071188,0.10642262281545216,0.12069513394926912,0.02921302026152409
0.38674941720654926,0.07851053874905391,0.021413990184453034,0.02099919602045554,0.043790686281606636,0.031860697154407244,0.14361912081401246,0.02706167548309088,0.03530867396183309,0.0367820521238008,0.08702875259703943,0.17969545953791868,0.09922764413393889,0.10431026802872567,0.11916546564183904,0.027208087425800748
0.38239745378317813,0.07817263049899448,0.021763742008760696,0.020438091897867123,0.044630648457044696,0.0319585311225336,0.14263118207124909,0.027296105537758113,0.034634396239283646,0.03678793469480498,0.08686532933640607,0.1797075561576468,0.0977028989830036,0.10221366378648437,0.11764009193003991,0.0252823372762001
0.3779910017761528,0.07786138375927344,0.022111072843146465,0.01988391421496657,0.04551434686231488,0.03206960926640987,0.14159116203494698,0.027534637849112812,0.03396119789147984,0.036796817620346714,0.08670534084299011,0.17972628889116696,0.096202390441244,0.10013504923478801,0.1161199530935373,0.023434541037845348
0.3735347084686096,0.07757733974247157,0.022455542684047303,0.01933704193655285,0.046440797886701954,0.032194041437970874,0.14049997701935404,0.027776669800859258,0.03328970931735775,0.036808818155186517,0.08654871702379936,0.17974958764874174,0.09472646217180307,0.09807665396063583,0.11460599772589533,0.021663425916985883
0.3690336614338304,0.07732109831567659,0.022796731817712947,0.018797833107202698,0.04740903119258536,0.03233188852121143,0.13935879023287148,0.028021654799185895,0.03262051510791297,0.036824055699039265,0.08639549389263962,0.1797753294309223,0.09327531731577059,0.09604067542504664,0.11309913566209015,0.019967675121424642
0.3644932945842903,0.07709331663580521,0.023134241935480658,0.018266625999359597,0.048418069607212705,0.032483157387458814,0.13816902988887086,0.02826907978973166,0.03195416746281939,0.03684262633059067,0.08624579069840951,0.1798013831653043,0.09184905820380158,0.09402925454030096,0.11160018662676628,0.018345929801391672
0.3599192546575111,0.0768947012015983,0.023467695889676565,0.017743738947398596,0.0494669043937843,0.03264780562613233,0.13693238583888984,0.02851843989893613,0.03129120711719809,0.036864580312078864,0.08609977970245825,0.17982564315278732,0.09044773249357879,0.09204445080608709,0.1101098302509362,0.016796792312344214
0.3553172359277985,0.07672599369271166,0.02379673597494512,0.017229469047512817,0.05055446946493481,0.03282575166366084,0.13565078565897226,0.02876921338008434,0.03063218313604827,0.03688991157870678,0.08595764977998989,0.1798460475163858,0.08907137461755853,0.09008821824190583,0.10862857379415691,0.015318829517204759
0.3506927919462139,0.07658795121746632,0.02412102063849515,0.016724089950360267,0.05167962493688285,0.033016884981727106,0.13432635195437814,0.029020845925401714,0.02997766888738443,0.03691856462560775,0.08581956517654785,0.17986057874200417,0.08772003979969156,0.08816238313463204,0.10715675541133352,0.01391057568891205
0.3460511408174172,0.07648132181100084,0.024440219548056554,0.01622784902400665,0.052841160077701836,0.03322107472748132,0.13296134338655932,0.02927275321401912,0.02932827392954732,0.03695045199588017,0.08568562085448363,0.17986724428705944,0.08639382959711504,0.08626862494226005,0.105694580549877,0.012570535809742848
0.3413970128356861,0.07640681620326206,0.024754006979009653,0.015740964732014525,0.054037813058476186,0.03343817669202753,0.13155808253876092,0.02952433935763585,0.028684651721217064,0.03698547262063999,0.0855558005647556,0.17986403626237452,0.08509290824970764,0.08440846368316789,0.10424217150326312,0.011297189914902165
0.3367346149889677,0.076365077002358,0.02506205352234769,0.015263626026896196,0.05526829643184852,0.03366803870636304,0.1301188741985473,0.029775021094070406,0.028047503229873934,0.03702352746426896,0.08542995399561983,0.17984887030979205,0.08381750948137794,0.08258325811812804,0.10279961493628528,0.01008899813713782
0.33206773075676843,0.0763566478484556,0.025364016162381143,0.014795994766509654,0.05653132080600083,0.033910504562492165,0.12864592097584934,0.030024250871210096,0.02741757666914343,0.03706453221132384,0.08530780603255021,0.1798195049403409,0.08256793377681303,0.08079421418758248,0.1013670030334835,0.008944405782351986
0.32739988540636794,0.07638195014862874,0.025659526826277323,0.014338209853260559,0.05782561414409187,0.03416541660915896,0.12714125705820684,0.030271536866031432,0.026795663731629137,0.03710842691774522,0.08518899005792786,0.17977345896113758,0.08134453653915216,0.07904239729091113,0.09994446746949777,0.007861848052626928
0.3227345037463424,0.07644127794576114,0.025948181311220855,0.013890391269803409,0.05914993543818727,0.03443261719508423,0.12560673196829414,0.030516459344229065,0.026182592796455764,0.03715518265677499,0.08507308735193783,0.17970797697440102,0.08014770790019894,0.07732874303884875,0.09853220564619426,0.006839754213863305
0.31807503598861164,0.0765348123666946,0.026229534176180964,0.013452643319388034,0.06050308171438344,0.03471194913740334,0.12404405221276035,0.030758682889676526,0.025579219676165225,0.037204805287402436,0.0849596631166372,0.17962008012872457,0.07897784528865755,0.07565406536971955,0.09713049888918712,0.005876551049548013
0.3134250486855302,0.07666264502140718,0.02650310378041707,0.013025056970312312,0.06188388759589717,0.03500325538012114,0.12245485088945898,0.030997964166518326,0.024986416523629706,0.03725733655739705,0.08484829706199194,0.17950667721449287,0.07783532014832267,0.0740190625647933,0.09573972253786997,0.004970665491716414
0.30878827937802744,0.0768248002428801,0.02676838461105688,0.012607711258669227,0.06329121697277573,0.035306377978916226,0.1208407538553355,0.03123415501622187,0.02440505954535101,0.03731285282197346,0.08473860792521697,0.17936469013885603,0.07672044042415901,0.07242432173960864,0.09436034809109177,0.004120526371015072
