EMG01_right_gast_med,EMG02_right_glut_max,EMG03_left_gast_med,EMG04_left_glut_max,EMG05_right_glut_med,EMG06_right_bic_fem,EMG07_right_rect_fem,EMG08_right_vast_lat,EMG09_right_vast_med,EMG10_right_tens_fasc_lat,EMG11_left_glut_med,EMG12_left_bic_fem,EMG13_left_rect_fem,EMG14_left_vast_lat,EMG15_left_vast_med,EMG16_left_tens_fasc_lat
0.0011867125403098777,-0.00990986040993335,-0.0006342435752946169,0.26964641137241346,-0.08366453466120666,-0.010335223244036826,-0.0054946339210902705,0.022546108235219405,-0.008718196074891764,-0.023305286735655698,-0.00015256417044906114,0.061305395259815966,0.02765012259945149,0.11358151687249163,0.03584529156197121,-0.00117749011819766
0.0011901813319423118,-0.00914502220064315,0.007544398931972398,0.2722151347681128,-0.07873759342651816,-0.0045326874363259525,-0.004637100685772205,0.023432342305154657,-0.008133205386405705,-0.0208594303941828,0.0017253674665330448,0.06367932754138093,0.028240174919141242,0.11672082921915693,0.04309350340492542,-0.0005510286881997592
0.0011939893178002034,-0.008388582711115176,0.01568360064563869,0.27478311547209644,-0.07386027245129277,0.001216654699265019,-0.003770356866416494,0.024332933147173268,-0.007536505470452686,-0.018433465126293055,0.0035920759948942635,0.06610402434814037,0.028846175484085242,0.11985466948554042,0.05023074584136387,8.30876725303727e-05
0.0011981556483417332,-0.007641828799240619,0.02377003134347788,0.27734764793280325,-0.06904009398075474,0.006903797913306614,-0.0028949866800738635,0.025247265440579716,-0.00692819608920647,-0.016031103908168802,0.005445314877686412,0.06857865417683764,0.029467996487928305,0.12297791407217307,0.05724458370295577,0.0007246239435566438
0.0012026975559635605,-0.006905970717659894,0.03179096017032436,0.27990572307357403,-0.06428415824183725,0.012520040536229318,-0.002011495686690916,0.026174733081811872,-0.006308329134883654,-0.013655834382348197,0.007282893509158476,0.07110225895947038,0.030105483875562007,0.12608525706252377,0.06412295217333239,0.0013733532932321255
0.0012076300963792751,-0.006182120881946324,0.039734465432390974,0.282453959792069,-0.05959902951754891,0.018057106118602072,-0.001120291766963702,0.027114750820283667,-0.005676897354123262,-0.011310849576768426,0.009102670715158143,0.07367374780644265,0.03075845751576362,0.1291712332724946,0.07085440238484761,0.0020290558486794823
0.0012129660937782896,-0.005471278744346504,0.04758956743642166,0.2849885339858143,-0.05499063703447512,0.023507241129951877,-0.00022167238706486534,0.028066761382290074,-0.005033826577701207,-0.00899899752994178,0.01090253448478196,0.07629189469162624,0.03142670920203689,0.13223023403836723,0.07742832493907609,0.0026915154016399832
0.001218716183341951,-0.0047743220264537065,0.055346282310569,0.28750513046293213,-0.05046419895666124,0.028863281478116568,0.0006841815960582057,0.029030237278111427,-0.004378971704134153,-0.006722752156141851,0.012680388785622809,0.07895533798289804,0.03210999882732649,0.13525650954920596,0.08383511137886826,0.003360518072315335
0.0012248890494904684,-0.004092003904036202,0.06299559933651072,0.2899989499482208,-0.04602417548727314,0.03411868953768342,0.0015972058099961708,0.0300046767929959,-0.003712116200344237,-0.004484203235746098,0.014434166469119289,0.08166257776782848,0.03280804919409274,0.1382441539078022,0.09006625385658247,0.004035856426974792
0.0012314918561671573,-0.0034249555929431194,0.07052938773911471,0.2924647739621802,-0.04167425476086749,0.0392675637432561,0.0025174465771198988,0.03098959401547687,-0.0030329747491333685,-0.002285062983049594,0.016161865539119004,0.0844119690367378,0.03352053997830113,0.14118707391063048,0.09611438460819595,0.0047173378801230025
0.0012385307349279066,-0.002773693658157823,0.07794024209662327,0.2948970610452055,-0.03741737275399139,0.044304623028865876,0.003445050432369606,0.03198450313564642,-0.002341198570131369,-0.00012668630832273782,0.017861592537204,0.08720171251531873,0.034247101332517654,0.14407895928255787,0.10197325832615789,0.0054047941070626965
0.001246011224208228,-0.002138631344554928,0.08522127761956937,0.29729005169224715,-0.03325576584399643,0.04922516809039523,0.00438025007690528,0.03298889839352673,-0.001636382912800869,0.0019898980380553765,0.019531601751168432,0.09002984972883152,0.03498730748239102,0.14691328796867553,0.10763768125844433,0.0060980895205455
0.001253938598049727,-0.0015200931875965996,0.0923658976741432,0.29963787364701117,-0.029191052391715332,0.05402502129791238,0.005323347917655601,0.03400223567696119,-0.000918076207158398,0.004063948217206257,0.021170325305799455,0.09289426824802047,0.035740670736399804,0.1496833846476158,0.11310339195784132,0.006797127829776168
0.0012623180393532786,-0.0009183321167058813,0.09936759878305565,0.3019346432958689,-0.025224337950629068,0.05870044708821586,0.006274698241492593,0.035023926724516874,-0.00018579036144899096,0.006094964695134995,0.022776391013371314,0.09579271614303858,0.036506636964747714,0.1523825182888655,0.11836689989725892,0.007501855937972339
0.0012711546308523615,-0.00033354826550646054,0.10621991261982598,0.30417455825245754,-0.021356337396984608,0.06324805460953861,0.0072346888668655416,0.036053350984439445,0.0005609882651691879,0.00808264280827802,0.024348625897440142,0.09872282144234998,0.037284583954396794,0.15500401655764853,0.12342528909767322,0.008212264745230386
0.001280453156125007,0.00023409208309372519,0.11291651451595239,0.3063519757594586,-0.01758750100044364,0.06766468448438533,0.008203723318022584,0.03708987768987451,0.0013227882787467994,0.010026824742800977,0.025886044444348878,0.10168211423699747,0.038073822914730084,0.15754138493540126,0.1282759947427315,0.008928386751048798
0.0012902177204133863,0.0007844419516321057,0.11945141471803368,0.30846147132211804,-0.013918111788016581,0.07194728583952327,0.009182206616278247,0.038132888373809244,0.0021001457751461242,0.01192745284887885,0.027387821757024304,0.10466805013893205,0.03887360209229955,0.15998842250219264,0.13291657749469765,0.009650290646470201
0.0013004512174405072,0.0013173697448472478,0.12581914005446385,0.3104978720650072,-0.010348312757640572,0.07609281206851734,0.010170539815608289,0.039181795621450306,0.0028936027131616533,0.013784525780506205,0.028853252889493294,0.10767803359339775,0.03968311166314468,0.16233932551618163,0.13734456613216478,0.01037807332144858
0.0013111547655178463,0.0018327668048395268,0.13201487177362617,0.3124562597149826,-0.006878060917887104,0.08009818830269642,0.011169124837035154,0.040236056585939275,0.003703710440011559,0.015598061130274714,0.03028170063425651,0.1107094393722193,0.040501489841059966,0.1645887697139999,0.141557448047718,0.011111849864516877
0.0013223274141378645,0.002330560255373054,0.13803453182662548,0.31433193889674094,-0.003507051657023941,0.08396037366218656,0.012178374923891944,0.041295180060226144,0.004531034972924379,0.01736807337691075,0.031672542657323347,0.11375963046836106,0.04132783027662035,0.16673196273716254,0.14555280162692746,0.01185174219045921
0.0013339663357082993,0.0028107252260663744,0.14387481304962968,0.31612036759058043,-0.00023465322572888196,0.08767647932104809,0.013198725622354843,0.042358726241721864,0.0053761616035467915,0.019094572973204472,0.03302514514956214,0.11682597058930648,0.04216119058683165,0.16876465929524456,0.14932848529998494,0.012597867486323532
0.001346067340822189,0.0032732945579630754,0.14953315223370933,0.31781704813341166,0.0029401365823581577,0.09124389363605562,0.014230644503635701,0.04342629872762718,0.006239698177186844,0.020777579919300595,0.03433888188498126,0.11990582952107459,0.04300060157631187,0.17068313357896814,0.152882814835163,0.013350329433309202
0.0013586254168140564,0.003718365719115429,0.15500764866108263,0.3194173790115639,0.006018711008961054,0.09466039479385284,0.015274639147113378,0.04449752871542574,0.007122276968910592,0.02241714075268904,0.035613183362288615,0.12299657981260707,0.04384507641620178,0.17248410594660665,0.15621470703642715,0.014109215761912637
0.001371635147741297,0.00414610476743565,0.1602969340169177,0.3209164812648073,0.009002853119986373,0.09792424458344157,0.016331262778469913,0.04557205183106314,0.008024555137826007,0.024013344249550053,0.036847589359455674,0.12609558350052388,0.04469361877648146,0.17416462387262593,0.15932378424247617,0.01487460225372698
0.001385090985094964,0.0045567473077263825,0.1654000023335423,0.32230905967051243,0.011894715043318006,0.10103425700158379,0.017401116902569316,0.04664947889316625,0.00894721380277639,0.02556633581625184,0.03804179310135018,0.12920016793782454,0.04554522870777457,0.17572190035936086,0.16221043580648833,0.01564655956533928
0.0013989873609987027,0.004950596497113638,0.17031601050299552,0.3235893928266315,0.014696780893651526,0.10398983595262408,0.018484850309424358,0.047729367678781665,0.00989095584223062,0.02707633107029335,0.039195674348363754,0.13230759019284816,0.04639890498369935,0.1771531333821608,0.16487583470675557,0.01642515974160497
0.0014133186494812635,0.005328018256129621,0.1750440798129255,0.3247514819856104,0.017411817283093243,0.1067909773680642,0.01958315396939298,0.048811211534958064,0.01085650257265437,0.028543628751607875,0.04030931979676887,0.1354149899384759,0.047253642674830475,0.17845538077810102,0.16732190948551492,0.017210481472758745
0.001428078992727425,0.00568943394107232,0.17958317321574366,0.32578928897938253,0.02004281561920286,0.1094382326679443,0.020696751562467933,0.04989445433937847,0.011844589497600706,0.029968622705121222,0.041383029885818996,0.13851933594800162,0.048108424940367045,0.17962557588536576,0.1695512737275722,0.01800261393570411
0.001443262016952732,0.0060353108252305925,0.18393211305076707,0.3266969850251179,0.022592930357207084,0.11193263257998039,0.02182638568560315,0.05097852208180459,0.012855961338964909,0.03135181231164484,0.042417311784281965,0.14161738636021548,0.04896220838197217,0.1806606823872603,0.1715671171571963,0.018801659069548456
0.0014588604663840936,0.006366150818640849,0.18808971168971583,0.3274691775069132,0.02506541704996729,0.11427557282140037,0.022972800121744217,0.05206285632133747,0.013891366558849864,0.032693810483987916,0.04341285896383089,0.1447056894787208,0.04981390246685472,0.18155790621550777,0.17337306404738118,0.019607732155132306
0.0014748657840608955,0.006682477923481961,0.19205493409394975,0.3281011007598184,0.02746357417736656,0.1164686658633707,0.02413672119299164,0.053146943234547585,0.014951551555004045,0.03399534823358236,0.04437051835882258,0.14778062965300653,0.0506623492607667,0.1823148963654859,0.17497300592179868,0.02042096060833468
0.0014912676655482334,0.006984825465623475,0.1958270431883512,0.3285887577098892,0.029790696785944242,0.11851357996032034,0.025318846553619018,0.0542303363471378,0.016037254667925254,0.03525727486409429,0.04529124667049873,0.1508384975066522,0.05150631747038922,0.18292990972579798,0.1763709164320696,0.02124148096058733
0.0015080536105705857,0.00727372612987753,0.19940571559636644,0.32892900108700107,0.032050054134448,0.1204119278105436,0.026519848333070254,0.05531267131354541,0.017149200079707785,0.03648055304917605,0.04617605789917413,0.15387556480448836,0.05234451926362926,0.1834019307062069,0.1775706749237987,0.022069434082653726
0.0015252085406387895,0.007549709096075317,0.20279112420726053,0.3291195458336116,0.03424489329859172,0.12216527303826871,0.027740387109618413,0.056393671488772154,0.018288091622178513,0.037666248371162704,0.04702596866034344,0.15688815586781613,0.05317564220299602,0.1837307394593236,0.17857596531801692,0.022904958798685968
0.00154271462148653,0.007813305015541607,0.20598398488725805,0.32915890818554955,0.03637845377485355,0.1237752481555476,0.028981127975802955,0.057473143508496354,0.01945460652123172,0.0388155132959138,0.04784195959203555,0.15987271133415912,0.053998384150044446,0.1839169258246713,0.17939030333060896,0.023748184124254345
0.0015605513584890218,0.008065054603232069,0.20898556542159843,0.3290462714765604,0.03845397839004513,0.125243712304216,0.03024275359424131,0.05855096263175078,0.020649389730810628,0.03992956599046266,0.04862497337271925,0.1628258398539859,0.05481148539709438,0.18396184948229274,0.18001715943308724,0.024599220433810524
0.0015786958538138527,0.008305516694883509,0.2117976556170295,0.3287812836580454,0.04047471702219225,0.126572891532472,0.03152597250367705,0.05962704817199594,0.021873050552038753,0.0410096648068378,0.04937594791077282,0.16574435334299834,0.055613755581942745,0.1838675499201372,0.18046010304282667,0.025458149913303692
0.001597123086281308,0.008535274444879769,0.21442249850802284,0.3283637963558496,0.04244392455841117,0.12776548159182544,0.03283152171329749,0.06070132990945864,0.023126162612137034,0.04205707961081325,0.05009586283018705,0.16862528171575786,0.05640409314253757,0.183636612485484,0.18072292698721049,0.026325017241625177
0.0016158061722862556,0.00875493953546001,0.21686268385906854,0.3277935743265843,0.04436485477223205,0.1288247069476435,0.0341601629824882,0.061773707240015116,0.02440926621835578,0.04307306138735678,0.05078578156960952,0.1714658636549903,0.057181495458174636,0.18327199886748152,0.18080974290344826,0.02719982288907266
0.0016347166096218877,0.008965154368942456,0.21912100666132403,0.3270700647973223,0.046240751845841414,0.1297543329401437,0.03551267260681156,0.06284400993706032,0.025722871609467058,0.044058813935722564,0.0514468834827555,0.17426351094199868,0.057945058369657826,0.18277685177911518,0.18072504533169806,0.028082521344238238
0.0016538245024849832,0.009166592304186929,0.22120029505671077,0.32619235508089484,0.04807484109033876,0.13055863143881022,0.03688982499213555,0.0639119812254086,0.027067462564041637,0.04501547634554277,0.05208048475950465,0.17701574517843566,0.05869396442157703,0.1821542961112311,0.1804737437798512,0.028973023551915694
0.0016730987612151732,0.009359956072958149,0.22310323221842504,0.32515934704942284,0.049870320063683186,0.1312423036133843,0.03829237088778235,0.06497729588764134,0.02844350022443619,0.04594412270618522,0.05268804768313644,0.17972010731919877,0.05942745986434078,0.18140729573069755,0.18006116349687362,0.02987120059178327
0.0016925072652848345,0.009545974569088981,0.22483224387108836,0.32397003507947214,0.051630350819596875,0.13181036634613252,0.03972101519826084,0.066039600285785,0.029851426900049455,0.046845774026772084,0.05327117839878519,0.18237404363966078,0.06014482113215515,0.18053863652032898,0.17949301702100814,0.03077688651820529
0.0017120169735985917,0.009725398242928349,0.2263895222890861,0.322623771382847,0.05335805352923641,0.13226801112333397,0.04117640613578846,0.0670985543989055,0.03129166952158028,0.047721411955593526,0.05383161395169795,0.1849747948421202,0.06084531212564647,0.17955103540755124,0.1787753497119351,0.03168987980197149
0.001731593963084003,0.009898993356941199,0.2277771697383231,0.3211204781351053,0.05505650129023541,0.13262045167254247,0.04265914321684483,0.06815386773442501,0.03276464234095735,0.048571988848940796,0.054371199834621096,0.1875193521313242,0.061528140550936854,0.17844729999527878,0.17791446338741823,0.03260994331214753
0.0017512033754856706,0.010067535368716846,0.22899738173442705,0.31946079884245315,0.056728715647936086,0.13287280170427418,0.04416979688792935,0.06920532710470122,0.03427074842035806,0.04939843353094147,0.05489185964586369,0.1900045203917075,0.062192435599069555,0.17723047412348691,0.17691682283619106,0.0335368028747102
0.0017708092536209237,0.010231801709380565,0.2300526140240672,0.317646185312593,0.05837766224296873,0.1330300403756905,0.045708928334279836,0.07025281464022252,0.035810379437459565,0.05020165334746068,0.05539555869783401,0.1924270501784697,0.06283726440194776,0.1759039493156645,0.1757889503580198,0.0344701445643492
0.0017903742522988836,0.010392564223055,0.23094571441951817,0.3156789202944319,0.06000624606706053,0.13309707619698324,0.0472771045014995,0.07129631487599498,0.03738391335864548,0.05098253342115428,0.05588426353423445,0.19478377855331191,0.06346167704002931,0.17447153913650257,0.1745373135930457,0.035409611023409934
0.0018098592156114296,0.010550582369256035,0.23168001189523663,0.3135620791030417,0.061617306010843836,0.1330788531947342,0.04887490697191527,0.07233591028269035,0.0389917095993367,0.051741934206265536,0.05635990097682419,0.19707175297792806,0.06406475824419908,0.17293751540632665,0.1731682164959629,0.03635479724521853
0.0018292226324170332,0.0107065998915755,0.23225935784905793,0.3112994362087487,0.0632136086479764,0.13298044312315116,0.050502933820469824,0.0733717651993593,0.0406341013992898,0.05248068850698391,0.056824326643699824,0.1992883304969689,0.06464567465255845,0.17130660711360243,0.17168771976297295,0.037305246386618876
0.001848420107042948,0.01086134654615388,0.23268811729111166,0.30889532477680803,0.06479784143478409,0.13280710584028604,0.05216179412497998,0.07440409873369597,0.04231138528581694,0.053199599061005784,0.057279316707236294,0.20143124566006676,0.06520371432529312,0.1695839646667027,0.17010162470200613,0.03826044625753526
0.0018674041697776921,0.011015542810718612,0.2329711107236736,0.3063544584944918,0.06637260564594019,0.13256431722474277,0.053852095356781995,0.07543314779396505,0.044023807671728456,0.0538994376103417,0.05772658491757315,0.2034986422815842,0.06573831628707856,0.16777509374996535,0.1684155221238947,0.03921982714138527
0.001886124629242957,0.011169904595321464,0.23311351038008854,0.3036817257605196,0.06794040938099574,0.13225776645295242,0.05557442437010832,0.07645912196117473,0.04577155023142537,0.054580946103366966,0.05816781097217249,0.2054890661076342,0.06624908823775533,0.16588576440928415,0.16663486859690413,0.04018276150074797
0.001904529279454522,0.011325146800576771,0.2331206970958892,0.30088196651281063,0.06950366087017297,0.1318933264535176,0.05732932310211643,0.0774821564845676,0.047554719478555676,0.05524484032141855,0.058604666678624295,0.20740141762816272,0.0667358110673831,0.16392190200216872,0.16476505624903312,0.041148565902814856
0.0019225646650749748,0.011481985535605851,0.23299808624649815,0.2979597582612756,0.07106466211963179,0.13147700274780524,0.05911726236140546,0.07850228076124964,0.04937334627764111,0.055891815831302885,0.05903883538849225,0.20923486650394427,0.06719842942814079,0.16188946723466954,0.1628114662870686,0.042116505165817504
0.0019401767701352252,0.01164113888815315,0.23275094585611125,0.29491927994066464,0.07262560272313741,0.1310148666196685,0.0609386226625487,0.07951942017629043,0.05122739460062611,0.05652255576794437,0.05947202392427981,0.2109887312374784,0.06763702833347279,0.15979433306114899,0.16077950594708876,0.043085798313842266
0.001957311580176528,0.011803326225424541,0.23238426854267913,0.2917643208377158,0.07418855348533286,0.13051297867904998,0.06279369169474812,0.08053342828340457,0.05311677390415778,0.057137739587278705,0.05990596656871933,0.21266232967022775,0.06805179653529297,0.15764217904701186,0.15867462933063886,0.044055625489266
0.001973915473245694,0.011969266103176779,0.23190276620771963,0.2884984151161532,0.0757554593924583,0.12997730851991374,0.06468267744347574,0.08154412987591539,0.05504135087389619,0.057738051634692276,0.06034242114442724,0.2142548220315097,0.06844297821557972,0.1554384448088823,0.15650234321797898,0.045025134579033906
0.001989935404027833,0.01213967296381286,0.23131098237923156,0.2851250178828956,0.07732813144600728,0.12941366220357245,0.06660572679563256,0.08255136063981845,0.057000958805745905,0.05832418817948247,0.06078315776344309,0.21576510724433998,0.06881081525082094,0.15318836151912257,0.1542681994644061,0.04599344603281534
0.002005318856893425,0.012315252901478578,0.23061344713119158,0.28164766427749155,0.07890823798732376,0.12882764222230755,0.06856294154341949,0.08355499893017164,0.058995403592094355,0.05889686149332022,0.06122994141378442,0.21719183511770548,0.0691554908784871,0.15089702370346508,0.1519777759701933,0.04695965424400367
0.002020013556975667,0.012496698852732475,0.22981481327062933,0.2780700961495211,0.0804972988710449,0.12822465605674063,0.07055438893750215,0.08455498835390356,0.0610244653680487,0.05945679961266705,0.06168451009354457,0.21853352409653815,0.06947710210377199,0.1485694546841555,0.1496366484714562,0.04792282396113381
0.0020339669427464693,0.012684685844331172,0.2289199542400108,0.27439635419700564,0.08209668619601165,0.12760995643278797,0.07258010576432292,0.08555135025256917,0.06308789503208927,0.06000474062191673,0.06214855061700468,0.21978871685336845,0.06977567983271421,0.1462106506885921,0.14725035553456778,0.04888198050136819
0.0020471254180347855,0.012879867509208848,0.22793402008746674,0.2706308348369622,0.08370763141447435,0.12698868395125273,0.07464009524685691,0.08654418556250976,0.06518540509277318,0.06054142061311003,0.06262367442839444,0.22095612356034292,0.07005124073217889,0.1438256042990204,0.1448243591566352,0.049836093870511265
0.0020594334213252566,0.013082874917126123,0.22686245094050783,0.2667783124151558,0.08533123600349335,0.12636589813516985,0.07673431646204727,0.08753366587727815,0.06731665460964835,0.061067554893867365,0.06311139603764748,0.22203473655164835,0.07030384303166731,0.14141930916354634,0.14236400328455281,0.05078406267685277
0.002070832520454936,0.013294317182635478,0.22571095050263712,0.2628439285927182,0.0869684838228127,0.1257465949836634,0.07886266642435255,0.0885200138534364,0.06948122838655164,0.06158381249208292,0.06361311725009414,0.22302391100536542,0.07053363391832304,0.13899674887338914,0.1398744723731749,0.05172471095649757
0.002081261032399241,0.013514782124780456,0.22448542485773393,0.2588331518322098,0.08862025442960242,0.1251357115407736,0.08102495548471345,0.08950347340455714,0.07167861321662454,0.062090788093175094,0.06413011910124554,0.22392340807655856,0.07074088596433538,0.1365628735823889,0.13736075182276217,0.05265680588768789
0.0020906544854082526,0.013744835785004898,0.22319189401041956,0.2547517108103041,0.09028733671960174,0.12453811860591715,0.08322087954025977,0.09048427044500507,0.07390818036713644,0.06258898491224506,0.0646635592036016,0.22473339885357851,0.07092602130663474,0.13412256827817054,0.1348275947690897,0.05357908986247951
0.0020989466163919583,0.013985020835291245,0.22183638487952645,0.25060550628227113,0.09197044209861209,0.12395860325731253,0.08544999937468496,0.09146256529737762,0.076169184607591,0.06307882224782073,0.0652144710128601,0.22545442947735778,0.07108962300601966,0.13168061661799887,0.13227950556227724,0.05449031614457666
0.0021060704253360886,0.014235855062371301,0.22042481478506634,0.24640050639857944,0.0936702162021406,0.12340184329676095,0.08771173848269241,0.09243840507295634,0.07846077926860802,0.06356066543777031,0.0657837659056628,0.2260873496489276,0.07123243368902064,0.12924166395497547,0.12972074676574355,0.05538928256399722
0.002111959089661097,0.0144978314934551,0.2189628743857498,0.24214263072089043,0.09538724797338785,0.12287237601677524,0.09000539852580625,0.0934116992062086,0.08078203719767074,0.0640348646284802,0.06637224042269778,0.22663320845158538,0.07135534218182997,0.1268101826655438,0.12715536184628312,0.0562748603840726
0.0021165466901855866,0.014771420501149636,0.21745592935073496,0.23783762820897825,0.0971220746924324,0.12237456381043813,0.09233018064378334,0.09438223624329013,0.0831319691281966,0.06450179273306249,0.06698058708745018,0.22709312284689828,0.07145935935227066,0.12439044222547198,0.12458720003245256,0.057146015626715646
0.0021197687101552933,0.015057072772647643,0.21590897685277438,0.2334909615146863,0.09887518135519485,0.12191256281419888,0.09468520282523182,0.09534973071278662,0.08550953582519807,0.06496187897762132,0.06760940502866451,0.22746812530852284,0.07154558476340399,0.12198648674343193,0.12201993697562447,0.058001820520879016
0.0021215622802222777,0.015355221975280095,0.21432667189051746,0.2291077305409494,0.10064699268707278,0.12149030761413891,0.0970695093494835,0.09631387657624481,0.08791365212910429,0.0654156360252781,0.06825920755879437,0.22775901498068288,0.07161516600190669,0.11960212357894508,0.11945709069130939,0.058841453308828354
0.0021218661545355827,0.015666286561251384,0.21271338941500004,0.22469267160323897,0.102437856119136,0.12111151940384293,0.09948207049690391,0.09727439504914114,0.09034318153345797,0.0658636789226408,0.06893042474315576,0.22796627489546467,0.07166925267875035,0.11724092345670668,0.1169020333827966,0.0596641853529497
0.0021206204155050637,0.015990670464219935,0.21107328200391076,0.2202502266275201,0.10424801433316182,0.1207797276730782,0.10192177137185221,0.09823107282971748,0.09279692060162859,0.06630673447051644,0.06962339951628148,0.22809010549003494,0.07170894766121086,0.11490622582927772,0.11435799980482361,0.06046935527623667
0.0021177659167537443,0.016328762568129946,0.20941032109859375,0.2157846382502946,0.10607757091358705,0.12049829119140405,0.10438738949473766,0.0991837879390333,0.09527357329173652,0.06674564005578237,0.07033837657872848,0.2281305456100469,0.07173526465507281,0.11260114289671264,0.11182809281455777,0.06125633069048205
0.00211324348496275,0.01668093495444704,0.20772832315146933,0.21130003652429719,0.10792646607680349,0.12027041287711586,0.1068775634797456,0.10013252092677329,0.09777171842483387,0.06718133146923488,0.0710754873088264,0.22808761404717512,0.07174911122167708,0.11032856299401271,0.1093152866939,0.06202446089580986
0.002106992911657939,0.017047540041522237,0.20603096252484754,0.20680050793279076,0.1097944844190173,0.12009914822846875,0.10939076398560171,0.10107734997099398,0.10028978253525211,0.06761481975517908,0.07183474197504067,0.227961435023079,0.07175130688310416,0.10809115850979634,0.1068224287278829,0.06277303516806827
0.002098951854194509,0.017428906808162725,0.20432177326217463,0.20229014614498317,0.11168129757429156,0.11998740755919723,0.11192528617558206,0.10201842934863631,0.10282603557174355,0.06804715768078219,0.07261603966385474,0.22775233860669644,0.07174262148231669,0.10589140004193139,0.10435223940731339,0.06350127267419635
0.0020890550295186894,0.017825336570210522,0.2026041419602953,0.19777308465409937,0.11358652465662478,0.11993795250911067,0.11447927185079078,0.10295595180351252,0.1053786138576679,0.06847939696904905,0.07341919297230758,0.22746093284825272,0.0717238143702917,0.10373157361465414,0.101907311508213,0.06420835532391712
0.002077234202093627,0.018237099566341168,0.2008812939499819,0.19325351208024422,0.11550979403814253,0.11995338743993113,0.11705074858068534,0.103890096397216,0.1079455569355363,0.06891254125674964,0.0742439571839622,0.22708814571122962,0.07169566745668021,0.10161379726404454,0.09949010820218801,0.0648934853572091
0.0020634190287337345,0.018664433959612647,0.19915627488698648,0.18873567147561374,0.11745079799986363,0.12003614638664904,0.11963766961461238,0.10482096638165793,0.11052484403104226,0.06934751084842923,0.07509005739923223,0.2266352361333178,0.07165901121592547,0.0995400349086959,0.09710296028231577,0.06555594454705163
0.002047538305619576,0.0191075475036586,0.19743192970729212,0.1842238454271166,0.11940933447315856,0.12018847623299699,0.12223794730956727,0.10574853419077723,0.11311442396944182,0.06978514019577249,0.07595721066930268,0.22610377468937418,0.07161474299928183,0.09751210623210838,0.09474806255408026,0.0661951453035587
0.002029521188805247,0.01956662051343177,0.19571088073797685,0.17972232910292005,0.1213853305603573,0.12041241800703208,0.12484947721846834,0.10667262434947745,0.11571223583009724,0.07022621048918458,0.07684514104335417,0.22549559533011715,0.07156383729433503,0.09553169164050798,0.09242746943942488,0.06681067035939682
0.0020092982279979466,0.020041808890585773,0.19399550659663262,0.17523539363120882,0.12337884358216397,0.12070979262035285,0.12747015063402767,0.10759294774822639,0.11831621809065981,0.07067149791314528,0.07775358612975562,0.22481272052103374,0.07150734789077128,0.09360033175899367,0.09014308986755157,0.06740229830830644
0.00198680215869741,0.02053324683983214,0.19228792335856396,0.17076724233112262,0.12539003696107576,0.12108220004730468,0.13009785413478378,0.10850916469616832,0.12092430462138684,0.07112181922101014,0.07868229463350615,0.22405726281811109,0.07144640223882215,0.09171942136864537,0.08789668156833622,0.06797001308466985
0.001961968409668621,0.021041049255970543,0.19058996930139901,0.1663219623401816,0.12741913017463827,0.12153103409437978,0.13273045544045411,0.10942094836613292,0.12353440660841696,0.07157806771940933,0.07963101523793091,0.22323130651553663,0.07138218860320279,0.08989019927900173,0.08568984493138772,0.06851399646983668
0.00193473529798004,0.02156531377364969,0.18890319431159033,0.1619034741064874,0.1294663241212068,0.12205750568326303,0.13536577557966742,0.11032803758081948,0.12614438027277858,0.07204123740151484,0.08059947800257927,0.2223367746897125,0.07131593689611133,0.08811374033216862,0.08352401759257515,0.06903460382491972
0.0019050439013857542,0.02210612247067004,0.18722885471281142,0.15751548104845675,0.1315317153528375,0.12266266739607928,0.1380015479610983,0.11123027626707313,0.12875198106511904,0.07251243369058304,0.08158737001974319,0.22137530822088966,0.07124889429466366,0.08639095895119747,0.08140047314977712,0.069532324393604
0.0018728376163873177,0.022663543203639155,0.18556791382501825,0.15316142666407906,0.13361523977051296,0.12334743643445477,0.1406353654108071,0.1121276376360343,0.1313548100232269,0.07299287007727846,0.0825943073257629,0.2203482189299027,0.0711822968917277,0.08472262713502024,0.079320326954651,0.07000772859018708
0.0018380614285539282,0.023237630535814725,0.18392104798734576,0.14884447645588259,0.1357166874238194,0.12411261475590939,0.1432646246053211,0.11302023190418743,0.13395027231053905,0.07348385077993837,0.08361980498596439,0.2192565536876726,0.07111733868234306,0.08310939994335036,0.07728454745861538,0.07046140557981996
0.0018006609383099082,0.023828426194979442,0.18228865711038897,0.14456753543651774,0.1378357821004155,0.12495890505383254,0.145886495591961,0.1139082971109934,0.13653557474400235,0.07398674035945119,0.0846632492049349,0.21810122753616887,0.07105513914905269,0.08155184055957282,0.07529396911071783,0.07089390088779499
0.0017605811991970688,0.024435958977527445,0.1806708781151989,0.14033328796944583,0.1399722831737623,0.12588692125412507,0.1484979405629966,0.11479217328485795,0.13910776720094825,0.0745029219292188,0.08572388015257072,0.21688316469180793,0.07099671399209838,0.08005044140500424,0.07334930444016118,0.07130567759493976
0.001717765565936458,0.02506024399561951,0.1790675989262886,0.13614423936124662,0.1421260780660676,0.12689719232025137,0.15109577277561378,0.11567226084675143,0.14166380639473106,0.0750337461827328,0.08680079281265828,0.2156034233615551,0.07094296037036706,0.07860563982181451,0.07145115468762538,0.07169712142525153
0.0016721550525297527,0.025701281147782026,0.17747847007872417,0.1320027505761932,0.1442972535543053,0.12799015836852554,0.15367672991954906,0.11654896471745155,0.14420062107828077,0.07558048153946627,0.08789295248805666,0.21426329891748733,0.07089466448484293,0.07721782725317342,0.06960001871137475,0.07206858063246283
0.0016236886254742961,0.026359052679315056,0.17590291055690033,0.12791106526664325,0.14648614066237453,0.12916615836007186,0.1562375476354635,0.11742262611539744,0.14671517050490376,0.07614429104883648,0.08899921592117117,0.21286440055189706,0.07085252436544644,0.07588735136690146,0.06779629989796311,0.07242041416875022
0.0015723042322313575,0.027033519687380304,0.17434010431628422,0.12387132938309608,0.14869332973586047,0.1304254089220025,0.1587750284648599,0.11829345404465158,0.1492044929290419,0.07672625300996234,0.09011835326661367,0.21140869741489532,0.07081717563507296,0.07461451113697332,0.06604031083986658,0.07275303194739195
0.0015179400199969912,0.027724617418348654,0.17278898418251526,0.11988560386595905,0.15091965437009777,0.1317679741476743,0.16128610261927442,0.11916148956102236,0.15166574134182367,0.07732740940974242,0.09124907044618981,0.20989853142232798,0.07078921497308906,0.07339954545391977,0.06433227561907078,0.07306692362280462
0.0014605354243018656,0.02843224920572454,0.17124820563969007,0.11595587110737707,0.153166144990965,0.13319372922163805,0.16376787676259016,0.12002662944528075,0.1540962041565419,0.0779488166077863,0.0923900320204159,0.20833659539295757,0.07076922055450487,0.07224261632212062,0.06267232966517527,0.07336267598978487
0.001400032051217435,0.029156278911213786,0.16971612964895968,0.11208403600485918,0.15543395491044235,0.13470233104813664,0.16621766695608808,0.12088869460073184,0.15649330915416396,0.07859158750242246,0.09353988415770378,0.20672587687944263,0.07075776917293715,0.07114378823721504,0.061060517336363945,0.07364097989951966
0.0013363743398282291,0.02989652310011686,0.1681908419535586,0.10827192251068965,0.1577242634492972,0.13629321651344864,0.1686330120909141,0.12174750991441408,0.158854609637731,0.07925692253952607,0.09469727662469044,0.20506956990961608,0.07075544968090607,0.07010300892337372,0.059496787586276745,0.07390262816002897
0.0012695100043263194,0.03065274713442861,0.16667021564050577,0.10452126661638307,0.16003816426302017,0.1379656352193902,0.1710116645927085,0.12260297785201522,0.16117775240128765,0.07994612749672123,0.09586088207223051,0.2033709587269028,0.07076287228318592,0.06912010224269285,0.057980988303321566,0.07414850620258961
0.0011993902643503281,0.03142466871580375,0.1651519987698893,0.10083370670577556,0.1623765651769224,0.13971870236246542,0.17335155597227103,0.12345514025749381,0.1634604277743962,0.08066061658667842,0.09702941037342548,0.20163327935680858,0.07078067312851595,0.06819477916999629,0.056512860671787964,0.07437957735844125
0.001125969877404529,0.03221196735202256,0.1636339076020057,0.09721077217107028,0.16474014853422936,0.14155145536188865,0.17565073591914895,0.12430422463855743,0.16570030264401184,0.08140190017736769,0.09820161549391433,0.19985958139717805,0.07080951359481957,0.06732665903766034,0.05509203628594215,0.07459686443745887
0.0010492069885958428,0.03301429617662235,0.16211371485995665,0.09365387112082786,0.16712941434996897,0.14346290685035684,0.17790728504697487,0.12515067173344846,0.16789493797281785,0.08217155728621701,0.09937629242048111,0.19805264793407798,0.07085007368409987,0.06651529030694259,0.05371803905432224,0.07480142899176251
0.0009690628115524161,0.033831294404558974,0.16058932580018945,0.09016427792423781,0.1695447685013585,0.14545209022919717,0.1801192030063698,0.12599514193897407,0.17004170253749823,0.08297119390528956,0.10055226207378107,0.19621502293492601,0.0709030390596109,0.06576016694000614,0.052390290208702256,0.07499434925589121
0.0008855011518055631,0.0346625997478348,0.15905883554332736,0.08674312123757327,0.17198660813890895,0.1475180939670869,0.18228429448594902,0.12683849921261134,0.17213771926978252,0.08380238907832317,0.101728342860146,0.1943491226409272,0.07096908148280694,0.06506073996559585,0.05110811250871948,0.07517669735763687
0.0007984877818693858,0.03550786000271929,0.157520562426133,0.08339137385123446,0.1744553868852502,0.14966008110314127,0.18440011655801716,0.12768177228557206,0.17417988124950784,0.08466663918254691,0.10290330850006113,0.19245736681933623,0.07104883274000365,0.06441642412856848,0.04987073172608749,0.07534951605677043
0.0007079896772853604,0.0363667429068455,0.1559730538615852,0.08010984794163992,0.1769516575845429,0.15187729099606675,0.18646403457351193,0.12852609435187323,0.17616493105011713,0.08556532816794005,0.1040758363587096,0.19054229140658732,0.07114285320602357,0.06382659975791335,0.048677277531914157,0.0755137950381958
0.0006139741886057081,0.03723894330830934,0.15441506311969005,0.07689919963427608,0.1794760920462192,0.15416902121497028,0.18847335425650377,0.12937262372510397,0.17808956626971553,0.08649974578920605,0.1052444649157244,0.18860663244364123,0.07125160269243008,0.0632906101750704,0.04752678821143212,0.07567044667900671
0.0005164084609251957,0.03812418670577617,0.15284549738089792,0.0737599418731346,0.18202947879791992,0.1565345885519135,0.19042546944114494,0.13022245197656696,0.17995054532838076,0.08747114140601639,0.10640758928246184,0.1866533788021415,0.07137543050092798,0.0628077550980103,0.0464182211883245,0.07582028122647991
0.00041525956957461736,0.03902222831837845,0.15126333923044452,0.07069246010584868,0.18461270119685347,0.15897326939279172,0.1923179976603002,0.13107652377094015,0.18174478476186343,0.08848078544627477,0.10756350373436846,0.18468579323651807,0.07151459417015832,0.062377280583714605,0.04535046699131231,0.07596398466132633
0.00031049548942485344,0.03993284702909146,0.14966754536746002,0.06769702665718191,0.1872266992425285,0.16148422103432167,0.19414889551204548,0.13193561187386896,0.1834694435652852,0.08953002359362998,0.10871046956889274,0.18270740322080364,0.07166929561033908,0.06199836610001731,0.04432236314346578,0.07610210906267695
0.0002020865128620069,0.04085583380894301,0.14805694170934933,0.06477381284652266,0.18987241901424476,0.16406639964392097,0.19591654739384523,0.13280036571521242,0.18512199029546123,0.09062031915789456,0.10984678390851615,0.1807219647053327,0.07183971822938855,0.06167010933506124,0.04333270558405564,0.07623508199901886
9.000671109758196e-05,0.04179097455704725,0.14643016660960817,0.06192289899997493,0.19255075379346745,0.16671851857743825,0.19761982253870053,0.13367140043161047,0.18670024899342846,0.09175328087566371,0.11097083908832148,0.17873340325430145,0.07202605785837068,0.06139151071658859,0.042380255869573606,0.07636322833470116
-2.576472461524095e-05,0.04273802766084109,0.14478570603067137,0.059144282557113355,0.19526248064683466,0.16943908085755585,0.19925809691506566,0.13454938546757791,0.1882024205542432,0.09293067402259492,0.11208116845721448,0.17674573793165912,0.07222854500761822,0.06116146336033629,0.04146374268143869,0.07648679435839993
-0.0001452423282530457,0.043696700619449996,0.14312200059936095,0.056437884503462314,0.19800819561988825,0.17222646515553042,0.20083123834443967,0.135435117036624,0.18962707695084752,0.09415441352171706,0.11317647514197203,0.17476299375857834,0.07244745640568483,0.060978754756187956,0.040581856652732576,0.07660597045263078
-0.000268433453301823,0.04466663812307321,0.1414375709999653,0.05380355437306356,0.20078824985364135,0.1750790226713873,0.20233955502488976,0.13632957096675544,0.19097312670036504,0.09542653870342145,0.11425564129227386,0.1727891085778543,0.07268311441368969,0.06084207970377101,0.03973323957046784,0.07672091174849008
-0.0003953376693649668,0.04564743123916716,0.13973113031544862,0.05124107406300616,0.20360268935824197,0.17799516352198208,0.20378370940847926,0.13723393373149456,0.19223975111720118,0.09674917047798834,0.11531771647876637,0.1708278410238126,0.07293587372813559,0.060750058158519804,0.03891647502427065,0.076831756287504
-0.0005259465003152135,0.04663864191912664,0.13800167360640947,0.04875016068621473,0.2064512075583271,0.18097342597207178,0.20516460096401967,0.138149610855623,0.1934263121851195,0.09812445284501291,0.11636188517985549,0.16888269607495549,0.07320609572430589,0.06070125319102142,0.038130092070958965,0.07693864033023126
-0.0006602435251607518,0.04763983082156681,0.1362485399504236,0.046330468663357834,0.2093331266145805,0.18401252387360295,0.20648322268606925,0.13907821326834746,0.1945322342432196,0.09955448313535964,0.11738741458014844,0.16695689678601477,0.07349411176970745,0.060694187717458714,0.0373725863557243,0.07704171059078342
-0.0007982048422066728,0.04865058241146579,0.1344714437465555,0.043981591222897895,0.21224741252149815,0.18711136881783397,0.20774049883188148,0.14002152343616506,0.19555686430068178,0.10104124797423933,0.11839358511864496,0.16505341166583595,0.0738001817314166,0.06072735972827975,0.036642451428589684,0.0771411333165278
-0.0009397998756046844,0.04967052536397092,0.13267047390122944,0.04170306144344289,0.21519270887231243,0.19026906481713135,0.2089371368196583,0.14098144413477456,0.19649934049747503,0.10258659836137324,0.11937960964538219,0.1631750093688929,0.07412446527280696,0.06079925572786042,0.03593821123088936,0.07723710025226443
-0.0010849924826581434,0.050699346823827776,0.13084606140738814,0.03949435293792637,0.21816737293275507,0.19348487473700754,0.21007356722689421,0.14195993343141639,0.19735853963393524,0.10419228033429977,0.12034456243471353,0.16132430932054959,0.07446702470651899,0.0609083620313632,0.03525844930067545,0.07732983161205352
-0.0012337421284602016,0.051736799405114796,0.12899891765378727,0.03735488024794981,0.2211695088679514,0.19675815912111327,0.21115001444241052,0.14295892980270525,0.19813314782682181,0.10585999679229034,0.12128735647661001,0.1595038190858036,0.07482785730809582,0.06105317344944307,0.03460183238455359,0.07741957622133654
-0.0013860044642720409,0.0527827002367393,0.1271299474198875,0.03528399899185708,0.22419699757924502,0.20008828942450801,0.21216664749513717,0.1439802713115432,0.19882180957115117,0.10759146804060704,0.1222067858395616,0.15771595950211095,0.07520693722186406,0.061232198744483046,0.03396712650110075,0.07750660898723014
-0.001541730684449001,0.053836921836808584,0.12524014183099633,0.03328100579397414,0.2272475224574001,0.2034745389318229,0.21312373909072846,0.14502561929205146,0.19942328714838156,0.10938847838541839,0.12310160462017053,0.15596307917482424,0.07560425120159964,0.0614439620952264,0.03335320401571758,0.07759122581200861
-0.0017008658429740271,0.0548993750979963,0.12333046305755092,0.0313451380159376,0.23031859040399136,0.20691596734949202,0.21402180539593074,0.1460964123707575,0.1999366027196226,0.11125290620659856,0.12397060690255865,0.1542474603163821,0.07601982250356952,0.06168699970207651,0.03275904091000766,0.07767373599169328
-0.0018633468293777237,0.05596998514828602,0.12140175464219354,0.029475573486467378,0.23340754771590108,0.2104113454306888,0.2148617214694027,0.14719387284699773,0.20036115632738355,0.11318673613339938,0.12481269432344148,0.15257131809230814,0.076453721000497,0.0619598506479421,0.03218370410589071,0.07775445204568002
-0.002029100470378142,0.057048661279326486,0.11945472511778997,0.027671431156856434,0.23651159081136341,0.21395916670020887,0.21564480814679324,0.14831905470391415,0.20069681408280257,0.11519205323422117,0.12562692848597112,0.1509367956274386,0.0769060586242974,0.062261041236392894,0.031626329379252166,0.07783367681322922
-0.0021980419183391456,0.05813526352365563,0.11749001388025584,0.025931774179245547,0.2396277721970332,0.2175577376891995,0.21637288721673412,0.149472904199139,0.20094396222290814,0.11727102041556942,0.12641256627570976,0.1493459566490345,0.07737697035185241,0.06258906227892218,0.031086091015918065,0.07791168754257957
-0.002370073409539336,0.05922957417795135,0.11550829429837843,0.02425561577360878,0.24275300241124745,0.22120529651706056,0.21704830284970336,0.15065631619544978,0.20110352440454418,0.11942584140907973,0.1271690769086359,0.1478007774344245,0.077866582020518,0.0629423410999232,0.030562167620839263,0.07798871660971061
-0.002545083461759413,0.060331288048161937,0.11351036879865917,0.022641926494310377,0.24588404881761472,0.2249001231097654,0.21767390843506584,0.15187018272536845,0.20117694145342177,0.12165871270933457,0.1278961402379896,0.14630313932678102,0.07837496722656834,0.0633192183485475,0.030053717348972678,0.07806492846213799
-0.0027229465623297634,0.06144002633598125,0.1114972401246223,0.02108964145742978,0.24901753199362237,0.22864062755564965,0.2182530192131106,0.15311543324895663,0.20116611468548268,0.12397176851484866,0.1285936264502323,0.1448548226170661,0.07890210348156296,0.06371794668628629,0.02955987898847233,0.07814039275422291
-0.0029035233746098487,0.06255536294512495,0.10947015584220832,0.019597667035037746,0.25214992004661585,0.2324254097037061,0.21878933233145662,0.1543930659801572,0.20107331573363385,0.12636702304151248,0.12926155780899354,0.14345750209221567,0.07944785217228073,0.06413671797542077,0.029079800253609702,0.07821505914972834
-0.0030866614634543705,0.06367685029766432,0.10743062492744095,0.018164886910684536,0.2552775205415113,0.23625328400305187,0.21928681718487536,0.15570416949184396,0.2009010674234555,0.12884631622388004,0.12990005359785817,0.14211274404749896,0.08001197833232238,0.06457370748980087,0.028612678232993946,0.07828874902450328
-0.0032721965095962265,0.06480404009817069,0.10538040715448278,0.016790167399323572,0.25839646894210877,0.2401232650896083,0.21974958008899179,0.1570499336313419,0.2006520015450267,0.13141127349922577,0.13050925990556775,0.14082200408561227,0.08059419523885557,0.06502712116148897,0.02815779846084854,0.07836117480142431
-0.0034599538418693425,0.06593649836924671,0.10332147785096474,0.015472361952455105,0.2615027116872559,0.24403451178022872,0.2201817084549087,0.15843164865418094,0.20032870029433353,0.13406328976312118,0.1310892664093469,0.13958662461078278,0.08119420996729768,0.06549523953881774,0.027714567827798332,0.07843197918668711
-0.0036497496369059003,0.06707381442612852,0.10125597222829541,0.014210314794258416,0.26459198138877776,0.24798622986718927,0.2205871134060432,0.15985069147256253,0.1999335477153816,0.1368035337402487,0.13164002395738317,0.1384078306094459,0.08181176001422945,0.06597645542018007,0.027282539887833742,0.07850078093075144
-0.0038413907676155957,0.06821560376439012,0.09918611475478226,0.013002863664861836,0.26765976127353225,0.2519775372413621,0.2209694249706081,0.16130849805960318,0.19946865606556627,0.13963295710762583,0.13216130147096272,0.13728672212745172,0.08244663871658457,0.06646930221861981,0.026861431492888933,0.07856722135725579
-0.004034672980643534,0.06936150508579247,0.0971141397839578,0.011848841679957851,0.2707012359791537,0.25600731326886045,0.22133199746847643,0.16280652137591795,0.1989359112490711,0.1425522975054309,0.13265271337319057,0.1362242618444311,0.08309870785873598,0.06697247044915536,0.02645113009539767,0.07863100962592147
-0.004229378206237555,0.07051117187528179,0.0950422140536419,0.010747078348731473,0.27371122618686766,0.26007409619241184,0.22167801634571616,0.16434617469764,0.19833709690882678,0.14556207467217175,0.13311380034878884,0.13522125634055035,0.08376789656914703,0.06748481030858948,0.02605169149620495,0.0786919643390093
-0.0044252719116926855,0.07166425906817839,0.0929723832911314,0.009696399821841959,0.2766841180338177,0.26417609419771576,0.2220106422947431,0.16592876091190456,0.19767402852036606,0.14866258279403244,0.1335441240990106,0.13427833006423356,0.08445418633668804,0.06800531910740956,0.02566332827108537,0.0787500488785681
-0.004622100878119416,0.07282040541861802,0.09090656514365228,0.008695628465862854,0.27961382847227395,0.26831129888272826,0.22233314399570162,0.16755539516369491,0.19694866721269844,0.15185388254337245,0.13394335503799293,0.13339589564564394,0.0851575827009758,0.06853311326201263,0.02528638956642211,0.07880539781908294
-0.0048195915366420535,0.07397921221023673,0.08884658285972875,0.0077435818787401425,0.2824938454198759,0.27247762903434697,0.22264900423188302,0.16922694798767177,0.19616320784644178,0.1551357962042956,0.1343113466680532,0.13257413575587312,0.08587807487059487,0.06906738558734574,0.024921333386054286,0.07885833193060106
-0.005017448965154607,0.07514021895115916,0.08679421003918475,0.006839071471921968,0.2853173325723767,0.276673049310447,0.2229619952631443,0.1709440444901036,0.19532013908014884,0.15850790876475168,0.13464819271966336,0.13181301421192348,0.08661558671011614,0.06960734965419708,0.02456869286304641,0.07890935968614206
-0.005215356602644814,0.07630287668020806,0.08475120433242495,0.005980900749066713,0.28807726293599556,0.2808956428343173,0.22327622085915677,0.17270712384472814,0.19442227444695817,0.16196957696078398,0.1349542637201192,0.13111231616412275,0.08736993272877636,0.0701521804401656,0.02422903828909078,0.07895916380676551
-0.005412976689003017,0.07746652203226308,0.08271932519305653,0.0051678638201938945,0.2907665601380818,0.28514362924248415,0.22359612399001924,0.17451652743977009,0.19347275473318368,0.16551994708700654,0.1352302204804132,0.13047170160451516,0.08814080447288536,0.07070097720736883,0.023902941357865,0.07900857218745234
-0.005609951388861779,0.0786303612665919,0.08070033725047657,0.004398745511337995,0.2933782387657478,0.28941532409359483,0.22392646076582862,0.176372585837617,0.19247502314468148,0.1691579810559092,0.13547700304540336,0.12989075932684735,0.08892779916301966,0.07125277357331505,0.023590957282794787,0.07905851349569204
-0.00580590451295366,0.07979347282299122,0.07869600189020215,0.0036723239801916404,0.2959055354502581,0.2937090405405551,0.22427224275248295,0.1782756925040464,0.19143277581507157,0.17288248882656748,0.1356957948929126,0.12936905600264081,0.08973047262452227,0.07180658838759237,0.023293635485094583,0.0791099587546828
-0.006000443566976918,0.08095482553165223,0.07670806033704511,0.002987374954318649,0.2983420216301779,0.2980229393012512,0.2246386512252477,0.1802263589506751,0.1903498911071453,0.17669216406613802,0.13588796351773913,0.12890617741692198,0.09054839310350153,0.07236148969041378,0.0230115491810147,0.07916385490016833
-0.006193161291977646,0.08211330266367617,0.07473821186932954,0.0023426761453664686,0.30068168863862255,0.3023548602920918,0.22503092820848505,0.18222524661637135,0.1892303418492974,0.18058561889022942,0.1360549798975144,0.1285017593320193,0.0913811864371271,0.07291665277301611,0.022745327171704074,0.0792210715442157
-0.006383635521469538,0.08326772578459005,0.07278809072942113,0.0017370112367674682,0.30291899605500117,0.3067022229440457,0.2254542502283723,0.1842731719461751,0.18807809510840737,0.18456141287540234,0.13619832059818343,0.12815550608237752,0.09222856983009396,0.07347140615019783,0.02249568033658578,0.07928239265214934
-0.006571427095853568,0.08441687678557361,0.07085924486505749,0.0011691733634316794,0.3050488752128937,0.3110620679909925,0.22591359498412855,0.18637108266025468,0.18689700431822148,0.1886180713482766,0.13631936580560866,0.1278671957825003,0.09309037208234923,0.0740252630050402,0.02226342151572316,0.07934856130759615
-0.006756076831057223,0.08555951742737485,0.06895311891408752,0.0006379680548427489,0.30706668141389687,0.3154312071775773,0.22641363105297294,0.18852000503638763,0.18569070682281114,0.19275408829048227,0.1364193303246872,0.12763667188342753,0.09396653883889415,0.07457793649148474,0.022049478373932528,0.07942035082284683
-0.006937102560541201,0.08669440570658196,0.06707104294385381,0.00014221562738970817,0.30896809077257537,0.31980639113028647,0.22695868014042914,0.1907209640076383,0.18446256012180814,0.1969679100633023,0.13649926725419687,0.1274638216710246,0.0948571222461593,0.0751293381745536,0.021854899181072765,0.07949863369448304
-0.007113996627910768,0.0878203083301168,0.06521422750186041,-0.00031924697518563865,0.31074894065843656,0.3241844412474731,0.22755276745286485,0.19297487982686642,0.18321564771468565,0.20125789749484943,0.13656013943532816,0.12734854309655888,0.09576225525207688,0.07567955980762779,0.021680851757030786,0.07958443748170356
-0.0072862239373183155,0.0889360085644872,0.06338376464773263,-0.0007475648831641535,0.312405016275052,0.32856232773327293,0.22819971483100585,0.19528245950930004,0.1819528428184838,0.20562226556799929,0.1366029156959288,0.12729070200758932,0.09668211162874915,0.07622883954702314,0.021528616107940483,0.07967898450888382
-0.0074532206445196425,0.09004030871867542,0.061580633918070414,-0.0011438645251230575,0.3139318265766803,0.3329371858566903,0.22890322609211786,0.19764413161235456,0.18067688926953426,0.2100590033720817,0.13662865879505132,0.12729008235423053,0.09761685357925105,0.07677751453742865,0.02139957151814788,0.0797837133638716
-0.007614393544386758,0.09113202653616721,0.059805711693188705,-0.0015092533498676241,0.3153244952008853,0.3373062671709253,0.22966694720107705,0.2000600665019623,0.17939047263697758,0.2145657948458787,0.13663859473971035,0.12734633224246267,0.09856657150443063,0.07732596251569265,0.021295179058379306,0.07990028136508442
-0.0077691201805668445,0.0922099848291585,0.05805978221473466,-0.0018448200169989867,0.31657786752152817,0.34166682720576413,0.23049449935843697,0.2025302642741291,0.17809627450070803,0.21913998690401346,0.13663416105055853,0.1274589137394514,0.09953123208828293,0.0778745370307562,0.02121696062191515,0.08003054839665005
-0.00791674966995117,0.09327299380286663,0.05634354852972581,-0.002151635025657859,0.31768677891513264,0.3460159557119417,0.2313894847388496,0.20505465851521487,0.17679700855609257,0.22377863323204364,0.1366170328203071,0.12762707466122797,0.10051066264993529,0.0784235112042646,0.0211664757028911,0.08017654366327959
-0.008056604199691095,0.0943198257017673,0.05465764185790898,-0.002430751751440929,0.31864636163821497,0.3503503838731452,0.2323554662059515,0.2076332037959618,0.17549543774123866,0.22847858636154342,0.1365891266216108,0.12784985540803204,0.10150458287428195,0.07897305722030276,0.021145297178132395,0.08034041791542022
-0.00818798111965654,0.09534918166664255,0.05300262822462362,-0.0026832078630230427,0.31945232551480024,0.35466636422464043,0.2333959237556163,0.21026593664061463,0.17419437213286706,0.23323659569543845,0.13655258340892254,0.1281261200938337,0.10251266245532238,0.07952327307276846,0.021154988861104108,0.08052438448205261
-0.008310155449411058,0.09635965302990418,0.05137901160117,-0.0029100270915245175,0.3201011902149646,0.3589597139136781,0.234514191603704,0.21295300549140878,0.17289664795724763,0.23804939306906808,0.1365097324771698,0.12845459136482298,0.10353457879551661,0.08007423474223252,0.02119709117119006,0.08073065298476743
-0.008422382086699938,0.09734968880582288,0.04978723319680839,-0.0031122213259266954,0.3205904530972056,0.3632259981807341,0.23571338067412617,0.21569466709924742,0.17160508873563388,0.24291376011392707,0.13646303926305003,0.1288338788966749,0.10457006497408756,0.08062604702228394,0.021273120318351588,0.0809613656226119
-0.008523896352530626,0.09831759013421816,0.0482276669206522,-0.0032907926748976623,0.3209186799241074,0.36746075649668286,0.2369962935795856,0.21849124887274998,0.17032245033071208,0.24782657280556245,0.13641504028914447,0.12926250037492346,0.10561894577669856,0.08117888329371754,0.021384577968630192,0.08121855870732378
-0.008613912224355622,0.09926154045841644,0.04670061188330971,-0.0034467343756722254,0.3210855101086217,0.37165970481992416,0.23836535153573551,0.22134307887986923,0.169051352457953,0.2527848199173247,0.13636826885573217,0.12973889565851335,0.10668116022547061,0.08173301282187379,0.021532963047374086,0.08150416729157182
-0.008691619242452996,0.10017965762328525,0.04520628578395971,-0.0035810295603131226,0.32109157324163334,0.37581888999966484,0.23982256629709486,0.2242503872760052,0.16779420607459372,0.25778559355285247,0.1363251751910773,0.1302614352746679,0.10775676972255913,0.08228881492608339,0.02171978049128034,0.08182006146115886
-0.00875617936749881,0.10107005068867615,0.04374482601406091,-0.003694648284434262,0.3209383191639007,0.37993478456213386,0.24136956938230852,0.2272131901802474,0.16655316379020377,0.2628260513883366,0.13628805082513867,0.13082842468968883,0.10884595158338145,0.08284678016247389,0.02194654599895915,0.08216808759253752
-0.008806724277626816,0.10193087418709447,0.042316301501857126,-0.0037885439446263434,0.32062776940411347,0.3840043137348809,0.24300767002416146,0.2302311917167569,0.16533012365658997,0.26790335163250434,0.1362589815513138,0.13143810591616026,0.10994897836024316,0.08340749942256225,0.02221478714004822,0.08255009927800049
-0.008842353207685845,0.10276037683300578,0.04092073063447996,-0.003863649719627852,0.3201622030105481,0.3880248107176549,0.24473790838446444,0.2333037591678043,0.16412678395732155,0.2730145629390809,0.13623985080487397,0.13208865793544808,0.11106618392672475,0.08397164252205305,0.022526041379499977,0.08296797468243249
-0.008862131405620916,0.10355694158951728,0.0395580992248501,-0.00392087522965333,0.3195438257963131,0.3919939006512864,0.24656109219650665,0.2364299880005389,0.16294471632784133,0.27815655253726546,0.1362323839565173,0.13277819713876668,0.11219791779588635,0.08453992837640166,0.022881851679835735,0.08342362042088183
-0.008865089252833197,0.10431911407735706,0.03822837592672484,-0.003961103550942655,0.3187745554457007,0.3959093181999792,0.24847781531195298,0.23960881208791246,0.16178543031743728,0.2833258629404618,0.136238203965263,0.13350477854780926,0.11334448957003179,0.0851130891788684,0.023283760358758055,0.08391896296149695
-0.008850222068657494,0.10504561659255798,0.03693152422836978,-0.00398518873672539,0.3178560541680004,0.399768667863632,0.25048845763245237,0.2428391094142527,0.16065041964172344,0.28851861264649775,0.13625887953587573,0.13426639801574292,0.11450610713159479,0.0856918310786485,0.023733301818282888,0.08445592937098138
-0.008816490594708026,0.10573534549123982,0.03566751042525919,-0.003993954001002253,0.31678997977617973,0.40356916976920415,0.25259316686053,0.24611978425697822,0.15954118664941727,0.2937304737888367,0.13629596123521734,0.1350609949941468,0.11568282251807392,0.08627679369432832,0.024231994651871914,0.08503641987550306
-0.00876282213319067,0.10638735039548773,0.03443630729201699,-0.003988190714803241,0.3155783055718996,0.4073075064270217,0.2547918233426655,0.2494498209654514,0.15845924276779816,0.2989567411507602,0.13635100512617682,0.13588645484969822,0.11687451252355863,0.08686851096377365,0.02478133350927326,0.08566227516695056
-0.008688112294392444,0.10700079455044183,0.033237893507391376,-0.003968658343559556,0.314223601135196,0.41097987453396134,0.2570839899496123,0.25282830629127234,0.15740608419594437,0.30419244974802706,0.13642558410378036,0.13674060919294465,0.11808090690666143,0.08746737958087543,0.0253827809826849,0.08633524161567709
-0.008591227292288693,0.10757489667972135,0.032072249199402075,-0.003936085417839066,0.3127292399126905,0.4145822053139347,0.25946885012499965,0.2562544191441526,0.1563831437952995,0.30943249551182395,0.13652128775458625,0.13762123230043813,0.11930164436539485,0.08807364612176272,0.026037759987468417,0.08705693872670489
-0.008471006713369719,0.10810885578888295,0.03093934824299405,-0.003891171578646315,0.3110995239795402,0.4181104325449013,0.2619451482100915,0.25972738849839866,0.15539172186637662,0.3146717420954277,0.13663971216708612,0.1385260315200749,0.12053633066349374,0.08868741694282413,0.02674764800978051,0.08782883587050493
-0.008326266622906883,0.10860177357334613,0.029839148138670613,-0.003834590675652603,0.3093397220278117,0.4215607315536552,0.2645111642421022,0.2632464218251359,0.15443291343383617,0.3199051085919246,0.1367824416386115,0.13945262958237875,0.12178458924434926,0.08930868074055597,0.02751377489159066,0.0886522435899365
-0.008155802385965603,0.10905261597115193,0.028771578414107456,-0.0037669948271617927,0.3074560224460104,0.424929705194349,0.2671647433232861,0.26681060778207355,0.15350757731028933,0.3251276332943436,0.13695102459025324,0.1403985370148566,0.12304610224207055,0.08993733258533908,0.02833742395938761,0.08952831512336752
-0.007958389875330067,0.10946024697834605,0.027736529415886804,-0.0036890190604637364,0.3054554088601554,0.4282145070489421,0.26990336059854464,0.27041879790880957,0.15261637795204636,0.33033450914884904,0.1371469461653147,0.1413611133692491,0.12432064005253465,0.09057319652189698,0.029219834301265152,0.09045804708925756
-0.00773278435539465,0.10982351614617301,0.026733845571470925,-0.003601285151621336,0.30334547028626896,0.4314128960082649,0.27272419259396413,0.2740694864225405,0.1517598738920562,0.3355210872709172,0.1373715999225221,0.142337522172325,0.12560807793467732,0.09121604728289578,0.030162202314844677,0.09144227420547878
-0.007477717970182442,0.11014135888915347,0.02576332682559406,-0.0035044025043293016,0.3011341617344428,0.4345232204915481,0.27562418313816694,0.27776073887808617,0.1509386084199765,0.34068284582878533,0.13762626074385206,0.1433247008203879,0.12690839849548793,0.09186563129715833,0.031165681888524917,0.09248166486029218
-0.007191897103900244,0.11041288826183322,0.024824736810495567,-0.003398965416008979,0.2988295334374228,0.43754433453459224,0.27860010089997594,0.28149021385173284,0.1501531827166394,0.34581532275082644,0.1379120605854942,0.1443193717105953,0.1282216793926954,0.0925216866943353,0.032231383049994886,0.09357672796723153
-0.006874000093681329,0.11063747137118629,0.02391781268054062,-0.003285548503122332,0.29643946513540753,0.4404754515449161,0.2816485856073821,0.28525525955599473,0.1494043057262808,0.3509140120736259,0.13822996805775128,0.1453180968966858,0.12954806617617703,0.09318396150566144,0.033360368985446566,0.09472783285586944
-0.0065226753884138605,0.1108147857327763,0.023042273255707266,-0.0031647022442563475,0.2939714872449722,0.44331594446041767,0.28476618009933835,0.28905303311332303,0.14869281680561436,0.35597422529128375,0.13858077209024094,0.1463173552736712,0.13088773086912867,0.0938522288256824,0.034553651432287294,0.09593523549496408
-0.006136540233860043,0.11094485185927293,0.02219782483034607,-0.003036949384014584,0.2914327678470795,0.4460651031995397,0.28794934554874535,0.2928806115874821,0.14801967921854514,0.3609909249074207,0.13896506919753135,0.14731362392298308,0.13224081762231185,0.09452629740699267,0.03581218464521965,0.09719910430769575
-0.005714179948500979,0.11102803961030099,0.021384164892552487,-0.0029027823887110052,0.2888302421531192,0.4487218665887499,0.29119445752722717,0.2967350859923608,0.1473859447690898,0.3659585714942443,0.13938325318647116,0.14830345573064152,0.1336073774959337,0.09520601605828649,0.03713685914150277,0.09851954144548482
-0.0052541478376720826,0.11106504725740066,0.020600984114279488,-0.002762662078395632,0.28617078119271333,0.45128458774604224,0.2944977810930941,0.3006136342657781,0.14679269210160759,0.3708710716343505,0.13983550561584537,0.14928354855124948,0.13498730169529005,0.09589127032478599,0.03852849790664133,0.09989659637121089
-0.0047549657761383314,0.11105685373972317,0.019847967019380738,-0.0026170174871367967,0.2834613263791963,0.4537509471962418,0.29785542378522784,0.3045135698093672,0.1462409432653036,0.3757218749794071,0.14032178499522824,0.15025080120651552,0.1363802793172583,0.09658197023941509,0.03998785672134076,0.10133026910492537
-0.00421512547142784,0.11100464611087912,0.019124791717041668,-0.002466246930268877,0.28070897286021634,0.4561180684815569,0.30126326628414907,0.3084323628821377,0.14573157466173836,0.3805041650422825,0.14084181263595574,0.15120235191934625,0.1377858045781926,0.09727802840821227,0.04151562713329619,0.10282050125493135
-0.0036330904019882676,0.11090972560925265,0.018431129013179667,-0.002310720188690655,0.27792100414609244,0.45838275114756416,0.30471687151970067,0.3123676329169467,0.14526526234161277,0.3852110642471539,0.1413950565841719,0.15213559538236826,0.13920322658978962,0.09797932828248482,0.04311243976078418,0.10436715393293268
-0.0030072984057569413,0.11077339973105202,0.017766641102444695,-0.0021507816609007027,0.2751048835592109,0.4605417117149817,0.3082113826833551,0.31631711073261237,0.14484249639319435,0.3898358193329753,0.1419807238714709,0.15304817551866984,0.14063181321140555,0.09868568311325968,0.04477886698911443,0.10596997283648572
-0.0023361648766099838,0.11059688739419714,0.017130979922677755,-0.0019867542870705118,0.2722682102787464,0.4625917931483391,0.3117414482078531,0.3202785706595207,0.14446364979639845,0.3943719555037861,0.14259777293624726,0.15393795208113237,0.14207080988004006,0.09939679088822972,0.046515424865488486,0.10762854955762056
-0.001618086509176271,0.11038128783228615,0.016523785145665233,-0.0018189440188114679,0.26941864910175517,0.4645301365799068,0.3153012231948613,0.3242497337816344,0.1441290573104474,0.3988133883138927,0.1432449462218468,0.1548029405192349,0.14351948773194798,0.10011220300393152,0.04832257407726823,0.10934230437470967
-0.0008514455173942332,0.11012763608047361,0.01594468170171685,-0.0016476444904761512,0.26656384352796114,0.4663543099888083,0.318884454079114,0.3282281447863473,0.14383907582686586,0.40315448362093353,0.14392081434857493,0.15564122597630164,0.14497717913653385,0.10083132768773072,0.050200719975725026,0.11111050913621984
-3.461422348953009e-05,0.10983700675152455,0.015393276703226788,-0.0014731409361189187,0.26371132148796317,0.46806238939313316,0.3224846055150318,0.3322110262284527,0.14359411766379165,0.40739005805112627,0.14462382540529137,0.15645085381161178,0.1464432993512645,0.10155346857759148,0.05215021167730838,0.11293233787188967
0.0008340405433429677,0.10951061753424259,0.01486915578989302,-0.0012957117694147053,0.26086840209541023,0.46965298904338776,0.326094991465489,0.3361951354328422,0.1433946547425557,0.411515315239819,0.1453523558350507,0.15722971867902036,0.14791735357421154,0.1022778790518422,0.05417134033281891,0.11480692202485734
0.0017561546028318088,0.10914991395156809,0.014371879998021942,-0.001115627300678442,0.2580421103523721,0.4711252382566243,0.32970889598429387,0.34017669205900064,0.14324119413068745,0.41552571649351466,0.14610475938648737,0.15797551285483594,0.1493989291979915,0.10300381591295198,0.05626433669657259,0.11673339947350164
0.002733365953319884,0.10875663166710457,0.013900985716208701,-0.0009331470051419085,0.25523910492335466,0.47247870399009606,0.33331967772709487,0.34415142648212915,0.14313422797364234,0.4194167882488377,0.14687941009124783,0.15868577867564246,0.15088767354863022,0.10373058636561856,0.05842936814783966,0.11871095349319861
0.003767315723891612,0.10833283401348949,0.013455989151183765,-0.000748516917519514,0.2524656220761998,0.47371326002508235,0.3369208527222925,0.34811471293549245,0.1430741631188938,0.4231838725170213,0.14767473501072081,0.1593580332863143,0.1523832578281515,0.10445758579338364,0.06066653531223721,0.12073883835054257
0.00485964916720639,0.10788092388420312,0.01303639360183958,-0.0005619676540003712,0.24972743683410845,0.4748289056400886,0.34050615065857015,0.35206171994815766,0.14306124496278222,0.4268218674183357,0.14848923263661246,0.15998990593011989,0.1538853283782474,0.1051843242252931,0.06297586840076728,0.12281638897863371
0.0060120161643348186,0.10740363057635965,0.012641697050467119,-0.00037371307073998393,0.24702984046052523,0.4758255387670566,0.3440695408138404,0.3559875471727909,0.1430955082274222,0.4303250895067349,0.1493214733744015,0.1605792593441324,0.15539344675173497,0.10591043988611429,0.06535732333111266,0.12494301310281057
0.007226071149622261,0.10690397349844316,0.01227139886969627,-0.00018394953514571145,0.24437763176646607,0.4767026917131539,0.3476052246857736,0.35988734157753605,0.14317678222253197,0.4336873663804304,0.15017007949729635,0.16112428661952655,0.15690702042177335,0.10663569881475231,0.0678107776241622,0.12711816522301125
0.008503472390436187,0.1063852057825563,0.011925005079341218,7.144236900996878e-06,0.24177511852254044,0.47745928117861264,0.35110759334858177,0.36375638878375127,0.1433047378243397,0.4369023051348838,0.1510336832954693,0.16162357721008497,0.15842523571169995,0.10735998018599227,0.07033602598475155,0.12934130296207128
0.009845880592705403,0.10585074170526991,0.0116020316305796,0.0001994068378814952,0.2392261245698754,0.4780935037292496,0.3545711485681884,0.36759017651478054,0.14347893887400276,0.4399636049373753,0.15191086377537444,0.16207614761784453,0.15994702438935515,0.10808324764607571,0.072932775387086,0.13161182740440355
0.011254956846824368,0.10530407238776185,0.011302005311062013,0.0003926933835676039,0.23673399809583942,0.4786029619123297,0.35799038781444437,0.37138442826936396,0.14369887405037887,0.4428653405154312,0.1528000679562974,0.16248143450277344,0.16147108712207178,0.10880550763508275,0.07560063940169302,0.13392901377136918
0.01273235997659487,0.10474867450181352,0.011024462042838964,0.0005868743467970537,0.23430161722433857,0.47898493944939563,0.3613596545809139,0.3751351063792331,0.14396396291035757,0.44560219235030624,0.15369954261133598,0.16283925034424077,0.1629959569675123,0.10952675628139641,0.0783391314326727,0.13629195415480658
0.014279743401668998,0.10418792658675245,0.010768942564045014,0.0007818340625621608,0.23193139313428365,0.4792366981973819,0.3646729606785941,0.37883838452818974,0.14427353595445228,0.4481696080998854,0.15460731987134801,0.163149704111871,0.16452007151413944,0.11024691698388533,0.08114765649228148,0.13869954475363772
0.015898751665337843,0.1036250670596366,0.01053498571766369,0.0009774689461389864,0.22962527825952372,0.4793557457071829,0.36792382274326385,0.3824905906033587,0.14462679094880918,0.4505638830548271,0.15552127288773265,0.16341309149335356,0.1660418391779683,0.11096577946100765,0.08402550113378197,0.1411505263536499
0.017591016807513543,0.10306321595700035,0.010322121086311678,0.001173685455446917,0.22738478787231528,0.4793400614698825,0.37110520643190453,0.3860881214320527,0.14502273769118249,0.452782151722151,0.15643920873167694,0.1636297609312718,0.167559695956013,0.11168296857961331,0.08697182119817093,0.14364355114775457
0.019358154770494965,0.10250543749463412,0.0101298655833726,0.0013703978209127074,0.2252110350423686,0.47918827085994276,0.3742096323598101,0.38962733153653056,0.14546016354000227,0.45482228767764027,0.157358959007278,0.16379997414594893,0.16907214988004546,0.11239796406248365,0.08998562710370112,0.14617724676359964
0.021201762007236325,0.10195480642244514,0.00995772749124611,0.001567525562641151,0.2231047739015585,0.47889975712080984,0.37722938587302046,0.39310439850770423,0.1459376496935164,0.4566827142696685,0.15827845140409805,0.16392381110236193,0.17057781067925998,0.11311015619535522,0.09306576852237328,0.14875026593133497
0.023123412416144372,0.10141446252857007,0.009805215697929163,0.0017649908165919379,0.22106644735139167,0.4784747035578775,0.3801567457254785,0.3965151679460393,0.1464536304418905,0.45836213417059946,0.15919575640035302,0.1640011727689604,0.17207540254897494,0.11381890864796441,0.09621092477930239,0.15136131804772354
0.02512465465494187,0.10088765136519534,0.00967184954875955,0.0019627157780485443,0.21909623623948082,0.47791406048979773,0.382984196493213,0.3998549906203748,0.14700646335665124,0.4598591907381018,0.16010910503008452,0.16403187510212544,0.1735637584490228,0.11452361446526142,0.09941960638190304,0.15400917990095972
0.02720700979511652,0.10037775107189517,0.009557166949670468,0.002160621194992853,0.21719410676361278,0.4772194345235443,0.3857046141719131,0.40311859899168306,0.14759448880442985,0.46117212506665434,0.1610168756699166,0.16401577618038038,0.17504179502566733,0.11522374180947807,0.10269016556517309,0.15669268402180053
0.029371969177350972,0.0998882857333537,0.009460729971980863,0.0023586266776156176,0.21535985285418668,0.476392901354572,0.388311414882567,0.4063000921345109,0.1482160714594544,0.4622985955180206,0.16191754999982264,0.16395289163249724,0.176508468053429,0.11591886751571553,0.10602081081089161,0.15941068445857834
0.03162099222808004,0.09942292614078758,0.009382127517600126,0.0025566523947302923,0.21359313049496167,0.47543674743773223,0.3907986575268656,0.4093930457157088,0.1488696211405382,0.4632357896878558,0.16280964046525453,0.1638434844572017,0.17796270919579524,0.11660869706468656,0.10940962325414948,0.16216200116973561
0.033955503908952654,0.09898547913750533,0.00932097481947867,0.0027546211829961183,0.2118934813203024,0.47435315029572567,0.3931610925709545,0.41239069151490026,0.1495535921551516,0.46398074982482107,0.16369159354958054,0.16368812603752694,0.17940334583516188,0.11729307017716595,0.112854574613192,0.16494534561457333
0.03637689140443385,0.09857986693862475,0.009276909786309415,0.002952460561622729,0.21026034332540242,0.47314385251878477,0.3953941508978987,0.41528611039756247,0.15026646209479788,0.46453074110448495,0.16456168807650506,0.16348772669154574,0.18082901279104704,0.1179719518655583,0.11635354622733424,0.16775923923791905
0.03888649961627612,0.098210097947857,0.009249586430953124,0.00315010452356437,0.20869304709886227,0.47180997985677475,0.3974938688755417,0.4180724189451926,0.1510066925212771,0.46488357319669754,0.16541797805111388,0.16324353558215401,0.18223808585468096,0.11864540940689079,0.11990434864695963,0.17060195781428988
0.041485625033148024,0.09788023067303102,0.009238665827529592,0.003347495035127896,0.20719079660231904,0.4703521303453228,0.3994567484452272,0.4207429433988038,0.15177267508666337,0.465037850187859,0.16625832048692654,0.16295711116854575,0.18362867721344003,0.11931357629691826,0.12350474103630413,0.17347153556692102
0.044175507582820586,0.09759433238170026,0.009243806435987822,0.0035445831881508977,0.20575263417088754,0.4687706728612868,0.40127955411375615,0.4232913734618395,0.15256266727311354,0.46499313583334323,0.16708046749827898,0.16263026457912935,0.1849986989447818,0.11997660477711579,0.12715244943138018,0.17636582356915412
0.04695732015365148,0.09735643414424357,0.009264658516234982,0.0037413299636300267,0.2043773901072491,0.46706609431886387,0.4029590521263319,0.42571188755352446,0.15337472706227487,0.46475002569108576,0.16788217148574355,0.16226497929506312,0.18634595955043987,0.12063460896837987,0.13084518265988954,0.17928256588567756
0.04983215706966672,0.09717048388253334,0.009300866648416313,0.003937706580689765,0.20306362133801192,0.4652393008980913,0.40449172602515443,0.42799924055165595,0.1542066687176342,0.4643101227128218,0.16866127414864485,0.16186331134315066,0.18766825990467007,0.1212876009761151,0.1345806445037244,0.182219465751143
0.05280102623450217,0.09704030231058783,0.00935207860143341,0.004133694418117341,0.20180955984405707,0.4632918449847478,0.4058735789659895,0.43014880514884807,0.1550560619383275,0.463675918081106,0.16941577048349274,0.1614272748039649,0.18896347600988117,0.12193543068092326,0.13835654049943613,0.1851742317443541
0.055864849184560854,0.09696955504431976,0.00941795564365924,0.004329284506001066,0.20061310675644858,0.4612260661934561,0.40710015287223705,0.4321565588458683,0.15592027017771995,0.46285058419550335,0.1701438435999761,0.1609587301793326,0.19022962415911238,0.12257775638813383,0.14217057766121363,0.18814459987629675
0.05902446772097163,0.09696175375240326,0.009498181336062212,0.00452447659182624,0.1994718864887509,0.45904514116496525,0.40816676528504653,0.43401901040926255,0.15679650312712345,0.4618376914361957,0.17084386785119957,0.16045932112586656,0.19146490476317302,0.12321406480518673,0.14602045540536182,0.19112832897275753
0.062280653227468306,0.09702028205375439,0.009592467893359814,0.004719277789137663,0.19838333513070314,0.4567530434815103,0.4090688394003262,0.4357330623107195,0.15768186563180017,0.46064086437467106,0.17151437952000473,0.1599304974349922,0.19266772193988002,0.1238437236319687,0.14990384607938384,0.19412316839146937
0.06563411659902146,0.0971484295213712,0.009700559715996593,0.004913700818682066,0.19734479122465054,0.45435442133875453,0.409802221432446,0.43729580911466326,0.1585733989684523,0.45926342460167907,0.17215401604750044,0.15937360449960572,0.19383667695309428,0.12446603893981846,0.15381836376703198,0.19712679885607168
0.06908551787093808,0.09734942247421849,0.009822233867598123,0.005107761853230524,0.19635357486734104,0.45185440593440296,0.4103634457761332,0.4387042757582433,0.15946811485882958,0.4577081474839428,0.17276142647023615,0.15878998925452642,0.19497053469789943,0.12508030557757618,0.15776152045601463,0.20013674890068162
0.07263547459029517,0.09762644859342945,0.00995729746183387,0.005301477979408917,0.19540704925997493,0.4492583674100296,0.41074993219372297,0.4399551316267797,0.1603630229865125,0.45597727009670946,0.17333516081469139,0.15818109359275764,0.1960681636213358,0.1256858484914561,0.16173066920884785,0.20315030234786
0.07628456790990672,0.09798267481880077,0.010105582119260628,0.005494864293807556,0.19450265954000964,0.4465716373227666,0.41096010279601813,0.4410444970483558,0.1612551529361937,0.4540727346236337,0.1738735701929858,0.15754852731647861,0.1971284507087002,0.1262820537667961,0.16572294238093316,0.2061644407212025
0.0800333453860706,0.09842125812935251,0.010266935845279613,0.005687930783462467,0.1936379449677562,0.44379921775251846,0.4109934110031201,0.4419679751664981,0.16214157138842128,0.4519965178989601,0.17437477765226708,0.15689411749458881,0.19815019441062684,0.12686838862647515,0.16973521286179846,0.20917586225615836
0.08388231953208651,0.09894534898514916,0.010441212848604678,0.005880679735905114,0.19281052220115075,0.44094552761684325,0.4108502796513125,0.4427209048728835,0.16301939510672458,0.4497509307600685,0.1748367485816914,0.156219932171045,0.19913199128746017,0.12744441004684084,0.17376410729964373,0.2121810667547164
0.08783196132242364,0.09955808742024518,0.010628263049806639,0.00607310499350782,0.19201803931651124,0.4380142887124401,0.4105319506310349,0.4432987060088782,0.16388579980168871,0.44733885105134097,0.17525741900333952,0.1555282776114394,0.20007216323780042,0.12800976204925582,0.1778060673948862,0.2151764615370508
0.09188268805461493,0.10026259203252948,0.010827925628546212,0.0062651935851672615,0.19125810224447762,0.4350086017100019,0.41004025359029017,0.4436972114291589,0.1647380244188073,0.44476388216772494,0.17563482637264258,0.1548216696243918,0.20096877370648603,0.12856416206704277,0.18185743239573574,0.21815845822508978
0.09603484524913225,0.10106194240685334,0.01104003033245669,0.006456928815376273,0.1905281772130029,0.43193112571286635,0.409377306016362,0.4439129468670599,0.16557336985361773,0.4420304331281731,0.17596721974148186,0.15410278086081147,0.20181972501137357,0.1291073770555688,0.18591452400454725,0.221123549396721
0.10028868258813255,0.10195915581264572,0.011264404893712296,0.006648293714841574,0.18982549140677824,0.42878425229302064,0.4085451642411573,0.4439433424099221,0.16638919062872257,0.43914372020597997,0.17625314199484537,0.15337436727817552,0.20262288588978952,0.1296391902036947,0.18997372655987765,0.22406835933887528
0.10464432424413006,0.10295715930763784,0.011500883827109957,0.006839274446089128,0.18914698922450984,0.4255702404064122,0.40754550094535247,0.4437868631688377,0.16718287774492138,0.43610969397267235,0.17649147829004821,0.15263917806190597,0.2033762117747692,0.13015935922932614,0.19403155799509147,0.22698966440274207
0.10910173661543143,0.10405875862435987,0.011749315720306904,0.007029863549568208,0.18848938402127616,0.4222913155476705,0.4063794727538638,0.44344305143613516,0.16795183079968595,0.43293489910237143,0.17668146671720383,0.15189985647062573,0.2040778446427687,0.1306675673233056,0.19808472717954662,0.22988437999805586
0.11366070332196593,0.10526660626626923,0.012009568224730694,0.007220062904243377,0.18784927281586206,0.4189497381543062,0.4050478683782841,0.44291247791223576,0.16869341758680229,0.42962627728533875,0.1768226694474042,0.1511588551231162,0.2047261866313398,0.13116336787232385,0.20213017361045182,0.23274951297895638
0.1183208189403252,0.10658317547244299,0.012281530522303066,0.007409886268883921,0.187223258235734,0.4155478468571343,0.4035514200434445,0.44219660503534275,0.16940491976431823,0.42619092594693553,0.17691490508229024,0.15041840741906795,0.2053199427889621,0.1316461309105808,0.206165086028324,0.23558207999326408
0.12308150147030172,0.10801075001618297,0.012565113185398586,0.007599361267415794,0.18660805336996625,0.41208808182084955,0.40189111456292365,0.4412975706246755,0.17008346379479897,0.4226358270058738,0.17695814537740753,0.14968057167914564,0.2058581297957589,0.13211501444741536,0.2101868973499215,0.238378994211818
0.12794201268022712,0.10955143188734304,0.012860245485121258,0.0077885306846642985,0.18600056337270304,0.40857299233757627,0.4000684417462452,0.4402179045386349,0.1707259491864104,0.41896757662997525,0.17695238178716038,0.1489473134650536,0.20634004920762897,0.13256898029655456,0.21419325431224354,0.24113693621147353
0.1329014771905574,0.11120715659953494,0.013166870331646135,0.007977452948085023,0.18539793941679397,0.40500523128621696,0.3980855702237954,0.4389601945163241,0.17132901382419294,0.41519219549639735,0.17689748505825303,0.14822058481120448,0.2067652256321027,0.1330068449647023,0.2181819613523269,0.2438522606960548
0.1379588968072994,0.1129797055775657,0.013484937144944111,0.008166201686883858,0.1847976021568039,0.40138753733149496,0.3959454454822573,0.4375267433795979,0.1718890713974329,0.4113151107932649,0.17679312017877316,0.1475023858100919,0.20713331213398237,0.13342734186257219,0.2221508994528118,0.24652100247275588
0.1431131586147863,0.11487071217275878,0.013814393049079582,0.00835486428240278,0.18419723349138872,0.39772270408907534,0.3936518095081234,0.4359193296748443,0.1724024073003723,0.407341304520469,0.17663877393503707,0.1467948068549728,0.20744396698022538,0.13382918181955292,0.22609792189614006,0.24913898648767166
0.14836303568989462,0.11688166104746049,0.014155173543073937,0.00854353935291872,0.18359473702066512,0.39401353418613244,0.3912091456266032,0.43413919763234593,0.17286529566979203,0.40327552605888384,0.1764338763853988,0.14610005108854351,0.20769671414679972,0.1342111082248324,0.23002073001890125,0.25170198583492726
0.15370717978304588,0.119013881048709,0.014507195799196215,0.00873233315204265,0.18298816909292892,0.3902627754094754,0.3886225556842614,0.43218726803540974,0.1732741167639749,0.39912248542756135,0.17617794962799013,0.1454204377411659,0.20789082967330033,0.13457194458039703,0.23391674897615325,0.25420587766157177
0.15914410590769065,0.12126853205009117,0.014870358112257738,0.0089213549022509,0.18237564365680697,0.3864730360851452,0.3858975795371019,0.4300644343139937,0.17362546699272755,0.3948870038209774,0.17587074034806388,0.14475838799081575,0.2080253189320269,0.13491063231268768,0.237783059173372,0.25664677748754927
0.16467216945885593,0.12364658655985934,0.015244545311362968,0.009110711132492105,0.1817552152234676,0.3826466775051754,0.38303996883135977,0.4277718343167919,0.17391625522478144,0.3905741203998864,0.1755123225915385,0.1441163956974756,0.20809900407153678,0.13522625688209658,0.2416164289602403,0.2590211435287783
0.17028953719754752,0.12614880808825144,0.015629636505905087,0.009300499801386886,0.18112476038968203,0.37878568254356887,0.3800554283191231,0.4253110650810456,0.17414377907717915,0.3861891565089715,0.1751031656121371,0.1434969858456008,0.20811066796062547,0.1355180605498274,0.24541342480363426,0.2613258438408069
0.17599415413081246,0.12877573221300462,0.016025512222912,0.009490806666624956,0.1804819134137443,0.3748915181197616,0.37694935467756835,0.4226843358412911,0.17430577544059794,0.3817377401881678,0.17464416364836402,0.14290266377855854,0.20805919559946603,0.1357854405896644,0.2491705428548596,0.26355818078667637
0.18178370891221549,0.1315276590495493,0.016432059965701504,0.009681706348751026,0.17982410310733454,0.37096505396572194,0.37372665217227347,0.41989455781780627,0.1744004405119673,0.37722579495240904,0.17413662660758164,0.14233585834851603,0.20794369055089754,0.1360279322373939,0.25288433199459914,0.2657158694115958
0.1876556007984596,0.13440465951409086,0.01684917790983324,0.009873267568360369,0.1791486698458934,0.367006604085183,0.3703917179973604,0.41694537225352957,0.1744264160401649,0.37265949733688836,0.17358223275661547,0.14179886196011848,0.20776356027811163,0.13624517622032267,0.25655150022529416,0.2677969686885087
0.19360691133403377,0.13740658823676477,0.017276776520377367,0.010065560018233775,0.17845300600944583,0.3630160814285675,0.3669485945082996,0.4138411206065256,0.17438274025024983,0.36804520772809296,0.17298294654058213,0.14129377359965958,0.20751856594724133,0.13643687127479195,0.26016900001212323,0.26979976716531945
0.1996343837109243,0.14053309538087522,0.01771477794761666,0.010258661145298635,0.1777346872503258,0.3589931983831377,0.3634011877421397,0.41058676269611866,0.1742687638778826,0.36338937868227517,0.1723409064843827,0.1408224603533332,0.20720883418696345,0.13660271261931184,0.2637340889954137,0.2717226271528398
0.2057344120964083,0.14378363436622366,0.018163113140319237,0.010452662256955517,0.17699158479754404,0.35493766312323594,0.3597534677029135,0.40718774993991835,0.1740840337885376,0.35869844446654936,0.17165828969265212,0.14038655426689564,0.20683483036612837,0.13674231789202565,0.26724436341451074,0.27356379543929166
0.21190304210562577,0.14715746460695572,0.018621716710230156,0.010647673649687765,0.17622195331240187,0.3508493528529082,0.3560096244893059,0.4036498616442313,0.17382814864781945,0.35397869513209956,0.17093717160695496,0.13998748191089952,0.20639729501934334,0.13685515193544592,0.270697762552958,0.275321221897075
0.21813598203892043,0.15065364861039707,0.01909051968964697,0.010843828484221071,0.17542448935063742,0.3467284537194286,0.3521741761558139,0.39997901269225716,0.17350060923897942,0.34923613819282456,0.17017943040335934,0.1396265064145601,0.2058971469901614,0.13694048427331118,0.2740925435028732,0.27699248362537865
0.2244286226038899,0.1542710430331395,0.019569440443029537,0.011041285173797856,0.17459835630366355,0.342575558423879,0.34825202636879216,0.3961810410049623,0.17310072709185367,0.3444763565232134,0.16938674861550096,0.13930476650026133,0.20533535856057442,0.13699741049635203,0.27742722652814805,0.27857487490618815
0.23077606078409582,0.15800828354133753,0.02005837489423221,0.011240228109009879,0.1737431728431944,0.3383917145445451,0.3442484720267717,0.3922614829287303,0.17262765194022825,0.3397043975066063,0.1685607047651317,0.13902330853372385,0.20471280997072827,0.13702492726290105,0.28070051226592296,0.280065600514215
0.23717312157146508,0.16186376356306106,0.02055718949290838,0.011440866611685462,0.17285896340181292,0.33417841919284613,0.3401691630233831,0.3882253688362006,0.17208050043612091,0.3349247526966146,0.1677028960584263,0.13878311144360503,0.2040301535209459,0.1370220260438662,0.28391117293211265,0.2814619776725471
0.24361436977872375,0.1658356074326799,0.021065720720911174,0.011643432088345266,0.17194607106398122,0.3299375586670641,0.3360200182208133,0.38407712168910496,0.17145851654823993,0.3301414470822748,0.16681504652382176,0.13858510448668174,0.20328775643635216,0.1369877838251948,0.2870579205763666,0.2827616083279347
0.2500941034345377,0.16992164293172546,0.021583780856062423,0.011848173436874328,0.17100503535113054,0.3256712950501792,0.3318071034464042,0.37982061739430795,0.17076121674066316,0.3253581868132331,0.16589908664230352,0.13843017792851772,0.2024857634548436,0.13692144363377182,0.29013925624664255,0.28396251321251575
0.25660632062724326,0.1741193863968813,0.022111166040917344,0.012055350843915163,0.17003643965339355,0.3213819049877575,0.3275364788708051,0.3754593565669695,0.1699885049817438,0.3205785080889853,0.16495720193528066,0.1383191868045906,0.20162423163664797,0.1368224808860205,0.2931533218996602,0.28506322155144914
0.26314466078486004,0.178426049882378,0.02264766347303211,0.012265228190287811,0.16904075761103188,0.31707157894742727,0.32321402438177993,0.3709966568713649,0.16914075205014284,0.3158059059329779,0.16399185008899556,0.13825294804818833,0.20070326833622884,0.13669065190473137,0.29609781638930854,0.28606281301149106
0.2697023520989086,0.18283856420200492,0.02319305663155212,0.012478064352639937,0.16801827628503577,0.31274221459402035,0.3188452654348399,0.3664358239030189,0.16821883594863127,0.3110439374680929,0.16300574820395772,0.1382322314330038,0.19972314563260152,0.13652602154926444,0.29897002781741117,0.2869609113336305
0.2762722219372134,0.1873536067122086,0.023747128243324,0.012694104828836858,0.16696915458637407,0.3083952938212386,0.3144352577377228,0.3617802930907091,0.16722414275206432,0.30629629530615277,0.16200183349150873,0.13825774497778714,0.19868438645306696,0.13632896774880787,0.30176695757719896,0.2877576318123592
0.28284679619240605,0.19196762918526425,0.024309660883912478,0.012913577374845817,0.16589357631716084,0.30403192505533305,0.3099885918972828,0.3570337400155519,0.16615852965603709,0.3015668480768511,0.16098320206829878,0.13833011567633022,0.19758781910580792,0.13610016178634146,0.30448547167488466,0.28845348715008595
0.2894184579669753,0.19667688450921092,0.024880435311163865,0.013136694285212818,0.16479191685887956,0.29965302161064905,0.3055095070889484,0.3522001575474358,0.16502425413734054,0.2968596468107651,0.15995303134980776,0.13844986661232386,0.19643459850003486,0.13584052439973968,0.3071224427052458,0.2890492580463086
0.2959796237629139,0.2014774508727086,0.025459226819946848,0.013363659200065593,0.16366488232433135,0.29525951675084305,0.30100204179992124,0.3472838991456124,0.16382387482651561,0.2921788976974475,0.15891449190066972,0.13861739165430215,0.1952261939149478,0.13555115907497708,0.30967487229839064,0.28954583606552686
0.3025229120758171,0.20636525202632902,0.02604580006595298,0.013594674609701594,0.16251360970297135,0.29085255052542897,0.2964701673508611,0.3422896885314804,0.16256013084102247,0.2875289035092283,0.1578706544989282,0.13883292896684982,0.19396434472920265,0.13523326521933782,0.3121399891326268,0.289944046841228
0.30904128635155836,0.21133607216090483,0.02663990291620816,0.013829948281799728,0.1613397223885823,0.28643360865294737,0.29191788881840763,0.33722259672317517,0.1612358069212707,0.2829139775811806,0.1568244036139762,0.13909653450144574,0.19265098699217645,0.1348880351258355,0.31451531846386044,0.29024446849441243
0.3155281546055646,0.2163855639156145,0.02724125993089891,0.014069698209598103,0.1601453389368105,0.2820046069649283,0.28734931154145776,0.3320879881584991,0.15985359869798565,0.27833833556544857,0.15577838248668324,0.13940805644173032,0.1912881550516867,0.1345165511939622,0.31679872016796157,0.29044728956561516
0.32197741027499915,0.22150924803471245,0.027849566058091225,0.014314155867301125,0.15893303649672122,0.2775679184683154,0.2827686733531689,0.32689143837060886,0.15841601491995366,0.2738059711692839,0.15473499229840815,0.1397671112855182,0.18987786358382336,0.1341197266945876,0.318988393470093,0.29055227370532877
0.3283834029048257,0.2267025032474158,0.028464481030505404,0.014563567644773191,0.15770577370596245,0.27312634379366285,0.2781803444350918,0.3216386264514756,0.15692536183301636,0.2693205331068808,0.15369643529204594,0.14017306307553687,0.18842198243745248,0.13369832673258625,0.3210828477719274,0.29055884832633305
0.334740832669658,0.23196054506793218,0.029085624800826552,0.01481819442645148,0.1564667806018382,0.26868302938675837,0.2735887981425122,0.3163352063394257,0.15538381050540379,0.2648852475302021,0.15266476968466483,0.14062501019115992,0.18692214057897408,0.1332530516005515,0.32308084020863986,0.29046625693527467
0.3410445689468231,0.23727839241871712,0.02971257415629362,0.015078309374393499,0.155219425046215,0.2642413409916791,0.2689985572439448,0.3109866617557636,0.15379349797904715,0.26050292944967457,0.151641955560837,0.14112178439956222,0.1853797095745855,0.132784635183174,0.3249812817052664,0.29027371243255917
0.34728940264282715,0.24265082128226328,0.030344860438066393,0.015344194067316947,0.15396706617074757,0.259804702513834,0.2644141207314359,0.30559815435611604,0.15215661927489216,0.25617607133923637,0.15062988748296635,0.1416619611889138,0.18379587543584086,0.13229393052985083,0.3267831143068686,0.2899805308841638
0.35346979660839645,0.24807230499041716,0.030981968082909428,0.015616133231324724,0.15271292141701084,0.25537641245281456,0.25983987669738196,0.30017439989196537,0.15047549745637906,0.2519069553087766,0.14963041453879766,0.14224387612993586,0.18217175135404914,0.13178197529467567,0.328485163403196,0.28958624294971486
0.35957978482125086,0.2535369463590215,0.031623333530154916,0.015894408368895004,0.1514600025234722,0.2509594753328627,0.25528000676250606,0.29471963491364095,0.1487526307058376,0.24769775073384823,0.14864534903987728,0.1428656441811464,0.18050848457383487,0.1312500350636616,0.330085969155586,0.2890906805888556
0.36561311523338935,0.25903842457600057,0.0322683439172683,0.016179290646150778,0.15021115003778396,0.24655652932003194,0.25073838721892033,0.2892376978267706,0.14699071644290093,0.24355058665419294,0.1476764654685401,0.1435251821009875,0.17880734165919213,0.13069962407396385,0.3315836264082113,0.28849403710307614
0.3715635474328283,0.2645699899802491,0.032916334936527014,0.01647103343051047,0.14896912195460413,0.24216991493641193,0.2462185023887685,0.28373217118736105,0.1451926534962961,0.23946759732314002,0.14672549156085501,0.14422023475572873,0.17706976950222839,0.1301325042132648,0.33297571216090704,0.28779689906199113
0.3774251647100505,0.27012451533044407,0.03356658724769411,0.01676986550961512,0.14773667621739245,0.23780182352034196,0.24172340632197822,0.27820652304298626,0.143361524195849,0.23545094093893496,0.14579409360870968,0.1449484055525544,0.17529743076873613,0.12955066435360196,0.3342593557457934,0.2870002492504507
0.3831926398347224,0.2756945799628817,0.03421832198211817,0.017075987215652115,0.1465166258872479,0.23345444104450452,0.23725575480604127,0.27266422554851166,0.14150055894987995,0.2315027931694137,0.14488385815016847,0.14570719054390643,0.1734922137939309,0.12895628295087014,0.3354314054921986,0.28610544046773745
0.38886143699291,0.2812725625578396,0.03487069852808388,0.01738957074115733,0.14531186695786935,0.22913005702756806,0.23281788101386464,0.2671088478523669,0.13961308639305425,0.22762531846851541,0.14399627217102148,0.14649401503059525,0.17165621815728832,0.1283516774022727,0.33648861439012306,0.285114140796475
0.39442793654936326,0.2868507327820369,0.03552281803091152,0.0177107628947,0.14412538111024042,0.22483113620694745,0.22841187492471227,0.26154412150494705,0.13770247252308612,0.2238206232705087,0.14313270374370243,0.1473062708251496,0.16979171820884612,0.12773924391013566,0.337427812459038,0.28402825179733754
0.3998894742916112,0.29242133733766784,0.0361737324574785,0.018039687674486774,0.14296021711840706,0.22056035293227003,0.22403965107257479,0.2559739779145316,0.13577205239835102,0.22009069585716667,0.1422943846758062,0.14814135179579982,0.16790110763938623,0.12712139158869978,0.3382460581672628,0.28284980192276404
0.40524429222033975,0.29797667563134983,0.03682245692631128,0.01837644757502412,0.14181945552722142,0.21632059023367797,0.21970300345638322,0.2504025585921154,0.13382505796245184,0.21643733798109416,0.14148239623883763,0.1489966849454932,0.16598682875573953,0.1265004743218331,0.33894076169446485,0.2815808182246142
0.41049140340468143,0.3035091601545206,0.03746798383257362,0.018721123555420383,0.14070616161953667,0.21211490714744582,0.21540364771687875,0.24483420001965675,0.13186455136582814,0.21286209319060784,0.14069765842758875,0.14986975411719278,0.16405129043848415,0.12587872349013227,0.33950977296785345,0.2802231801159541
0.4156303785593489,0.3090113567683925,0.03810929796485863,0.01907377379065929,0.13962333162312876,0.20794647911768255,0.21114325096818856,0.23927339589505714,0.12989338650499316,0.20936618060973994,0.13994092251137671,0.15075811346682697,0.16209677884536605,0.12525819001903757,0.3399514279491862,0.27877847026858754
0.42066106648359214,0.314476000430865,0.03874539168909958,0.019434431424946223,0.13857383667084258,0.20381851713982785,0.20692344989994046,0.23372474021581371,0.12791421735857023,0.20595045355182126,0.13921276594740867,0.15165938810816415,0.16012537428791784,0.12464071504792541,0.34026454771514497,0.2772478710062807
0.42558326403449187,0.31989598249988555,0.03937527910245589,0.019803101628341955,0.1375603683493884,0.19973417178854608,0.202745857956408,0.22819285514276602,0.12592954175998008,0.20261540135452644,0.13851358811043402,0.15257125980198974,0.15813890779334858,0.124027940520071,0.3404483865200035,0.27563216590680745
0.4303963915010882,0.3252643065976374,0.03999800793981449,0.020179758316988927,0.13658539331856165,0.1956964284083956,0.1986120625494953,0.22268230783450352,0.12394175272698531,0.19936118805341732,0.1378436048282054,0.15349143621968026,0.15613898265464363,0.12342134411587863,0.34050252725000757,0.27393184888444005
0.4350993113333135,0.3305740111111426,0.040612667968943535,0.02056434092673455,0.1356511315017824,0.19170801118070774,0.19452361335368992,0.21719752047797403,0.121953180906929,0.1961877029521944,0.13720283946726697,0.15441760313136021,0.15412704277492073,0.12282227551714944,0.34042672538938784,0.2721472825278223
0.43969039590225056,0.3358180577129275,0.041218394658365104,0.020956751624588207,0.13475956378913329,0.18777133670793694,0.19048200274363572,0.21174267759263177,0.11996612438721672,0.19309460639543136,0.13659110834077198,0.15534735980970732,0.15210445075363271,0.12223198488079641,0.34022070566106904,0.27027885522696327
0.4441677755976302,0.3409891867719343,0.04181436706068489,0.02135685329906514,0.133912454008469,0.1838885437985213,0.18648863936299273,0.20632164493779231,0.11798286543834574,0.1900813678974173,0.13600800118221082,0.1562781444685489,0.1500725568211342,0.12165164309432423,0.33988393727909205,0.26832711992018315
0.44852962150327996,0.3460797564223637,0.04239979912950207,0.021764468589044267,0.13311136659004172,0.18006157244279683,0.18254481567392256,0.20093793472784496,0.11600567434992659,0.18714729800485594,0.13545286705593587,0.1572071767821211,0.14803275464119967,0.12108235449443208,0.3394154729693001,0.26629290903786357
0.4527743871648913,0.3510816267612756,0.042973924072265024,0.0221793800949967,0.1323576735439898,0.176292246805258,0.1786516701687066,0.19559473870275199,0.11403680111079384,0.1842915752076374,0.13492482264778133,0.1581314564781387,0.14598652268322956,0.12052516300059295,0.3388139571226338,0.26417742072739736
0.45690099276151835,0.3559861676060384,0.04353597181054503,0.022601331773792494,0.1316525506209829,0.1725823420722066,0.17481014477949086,0.19029500351894682,0.11207845624512368,0.18151326887193647,0.1344227889998714,0.15904782742446655,0.14393545028980653,0.11998105282018161,0.33807780971080303,0.2619822722603253
0.4609089469483379,0.360784398959214,0.04408514187095836,0.023030031359677083,0.13099696311053563,0.1689336321698236,0.17102093812543592,0.18504150945033837,0.11013278261558392,0.17881135863308184,0.1339455465909531,0.1599530767693133,0.14188124800840468,0.11945094500836871,0.337205487584894,0.2597095176703441
0.46479840508967807,0.3654671988399359,0.04462058121401973,0.023465153493164442,0.13039164694487757,0.16534791809686178,0.16728446349671913,0.17983693653962302,0.10820182040890299,0.1761847500493093,0.13349179670482486,0.16084403767531796,0.1398257422303939,0.11893569120393492,0.33619573497426325,0.2573616281374127
0.46857016569638865,0.37002551914046117,0.045141381590595504,0.023906343092225224,0.12983710146147573,0.1618270375245473,0.16360083632824965,0.1746839162535732,0.10628746906166626,0.17363228568443656,0.13306022271799217,0.16171768313380216,0.13777085469072642,0.11843606581015484,0.3350477897849196,0.25494143536528774
0.47222560948043435,0.3744505864573702,0.045646600842119536,0.024353218383075758,0.1293336073830262,0.15837285711748111,0.15996990777704334,0.16958506816189176,0.10439145648947706,0.17115275025575094,0.13264954693184633,0.16257120596153576,0.13571856792008363,0.11795275775927977,0.33376153317099133,0.2524520400991018
0.47576658746148,0.37873407731881953,0.04613529708112116,0.024805372938165725,0.12888126408134049,0.15498724969730768,0.15639132903806058,0.16454302169017979,0.102515331873174,0.16874486813691916,0.13225857839053798,0.1634020805913779,0.13367087828585275,0.11748636281002615,0.3323375730597222,0.24989668985494465
0.47919526597700723,0.38286825752292175,0.04660656352088273,0.025262376062661324,0.12848003137241565,0.15167205888601903,0.1528646220760405,0.1595604235439872,0.10066048671105629,0.16640729140576438,0.13188624738062618,0.1642081030450767,0.1316297387773258,0.11703737710178999,0.33077725626836096,0.24727863171437667
0.48251393727465186,0.386846076143085,0.04705955902090481,0.025723770941029185,0.12812976738493467,0.14842905421538402,0.14938924695539404,0.1546399319485376,0.09882818923486215,0.16413857680636396,0.131531622985648,0.16498740647626808,0.1295969941510284,0.11660619244578929,0.3290826082624102,0.24460095049307945
0.4857248046530274,0.3906612061564803,0.04749353262399666,0.026189070110280738,0.1278302584556306,0.1452598798677411,0.14596466319135912,0.1497841993698778,0.09701961588591554,0.16193715045691395,0.13119391109746525,0.1657384508330936,0.127574319231889,0.11619309358555634,0.3272562041221225,0.24186642861467314
0.4888297509399839,0.394308025594548,0.04790784069885566,0.026657748809737137,0.12758123754231135,0.1421660004394321,0.14259038236777244,0.1449958458397483,0.09523587420953235,0.15980125985171498,0.13087243156069792,0.16645998643953147,0.12556318788554005,0.11579825741575688,0.3253009785485778,0.23907749749281068
0.4918301046223686,0.397781535549306,0.04830195569395472,0.027129239500107694,0.12738238832392682,0.1391486539608816,0.13926600930461408,0.14027742535671592,0.09347801644809645,0.15772892209557732,0.13056657452814938,0.16715099255282007,0.12356489308832361,0.11542175391478517,0.323219986419018,0.23623631207123355
0.49472645083170036,0.4010772142109059,0.04867546592462542,0.027602932395180316,0.12723333321582256,0.13620883412908683,0.13599126934177005,0.13563138804378172,0.0917470436558602,0.15571789808312514,0.1302757375193598,0.16781059314271418,0.12158060275261409,0.11506354832808657,0.3210161410214548,0.2333448930241183
0.4975185685317534,0.40419080924008427,0.049028066234098805,0.02807818326450777,0.12713360487190858,0.13334731304702166,0.13276601983582123,0.13106004078465958,0.09004390068196995,0.15376572056773702,0.12999924599861343,0.16843795318755314,0.11961142096578527,0.11472350394172363,0.31869200844051176,0.23040526691150026
0.5002055221826578,0.4071180740406239,0.04935953977697037,0.028554324940048767,0.12708260222473597,0.1305646864744843,0.12959024471607766,0.1265655089312383,0.08836946284593059,0.1518697679347377,0.12973627455944714,0.16903215976148622,0.11765843903207542,0.11440138461673376,0.3162497686296684,0.22741957922898035
0.5027858374502585,0.4098544803140552,0.04966973156090167,0.02903067852346,0.12707954243595604,0.1278614181067981,0.12646403185928393,0.12214970465219159,0.08672451553978879,0.15002735428524064,0.12948581253546246,0.16959211001205965,0.11572277234915752,0.11409685612343826,0.3136913653415457,0.22439017714601803
0.5052576820597919,0.41239501294683895,0.04995851474218527,0.029506562159438643,0.12712343935486428,0.1252378749615667,0.12338753404421157,0.11781431340148289,0.08510972894198698,0.14823581721351436,0.12924670333187852,0.17011646164181174,0.11380558139586304,0.11380948523179713,0.3110187435517208,0.22131966055453325
0.5076190263954834,0.41473417774722515,0.05022575101058755,0.029981296090950453,0.1272131308253575,0.12269435365621689,0.12036091525334197,0.11356080478916582,0.08352563531245434,0.14649259628843708,0.12901773077415987,0.1706036816397773,0.11190807599583029,0.11353873549103691,0.30823407220296484,0.21821090177459745
0.5098677820124083,0.41686622998977974,0.05047125263480565,0.030454202971930907,0.1273473391147705,0.12023109774514384,0.11738428501627243,0.10939045773186239,0.08197262317832243,0.14479529767477992,0.12879770930811582,0.17105215727138479,0.11003150304753405,0.11328395868128634,0.30533991717848347,0.21506703576807437
0.5120019166290393,0.4187855035714356,0.050694765613151054,0.030924602795724346,0.12752473522991042,0.11784830655767121,0.11445763136317477,0.10530438496654082,0.08045095540007492,0.14314174094491003,0.12858555998994467,0.17146031422437852,0.10817711901213485,0.11304438105231454,0.302339358558506,0.2118914239127276
0.514019544359335,0.42048673466774766,0.05089598672212529,0.03139180226008617,0.12774399350531312,0.11554613614159706,0.11158078091484869,0.10130355079154266,0.0789608007890339,0.1415299850608746,0.1283803678858326,0.1718267205978013,0.10634614954180509,0.11281908368507804,0.29923604968470374,0.20868759524993374
0.5159189899523631,0.4219653409254151,0.05107460221102297,0.03185507986334083,0.12800383269478605,0.11332469299566066,0.1087534131478808,0.09738878207796033,0.07750226560711525,0.1399583316738419,0.12818141758424673,0.17215017298134538,0.10453973961094318,0.11260697798169687,0.29603421889736525,0.20545916964220193
0.5176988256876158,0.4232176418554856,0.0512303288755477,0.03231367264294137,0.12830304135366796,0.11118402130347285,0.10597512056223514,0.09356077373219006,0.0760754195918258,0.13842530519347088,0.12798820477664077,0.17242976160456788,0.1027589033625339,0.11240678450865138,0.29273861782592453,0.2022097674995916
0.5193578793957513,0.42424100887117894,0.05136294975340972,0.0327667742687249,0.12864048670163944,0.10912408439983375,0.1032454823775189,0.08982009001776582,0.07468031529266486,0.1369296104140605,0.12780042323788493,0.17266491234809378,0.10100449459415704,0.11221703117491402,0.28935442265632655,0.19894291071479075
0.5208952119200756,0.4250339369031893,0.05147234276145391,0.03321354820602009,0.12901510754547713,0.10714474124090499,0.10056412975948682,0.08616716323565217,0.07331699987199752,0.1354700697396432,0.12761792795428692,0.17285540427680815,0.09927721441416325,0.11203607879039525,0.28588709676922475,0.19566192097254753
0.5223100622914992,0.4255960335028219,0.051558500918989336,0.03365314925186353,0.1294258930676577,0.10524571873317509,0.09793079593142422,0.08260229122510084,0.07198551893363575,0.13404554313401043,0.12744067652287144,0.17300136225354407,0.09757764583312901,0.11186216469721544,0.2823422244858648,0.1923698356785834
0.5236017590442995,0.4259279255534728,0.051621543211720584,0.03408474524755726,0.129871850220773,0.10342658348052595,0.09534534920549348,0.07912563500026407,0.0706859123759147,0.13265483476659007,0.12726865220040112,0.17310322509624823,0.09590629060678875,0.11169345175123067,0.2787253263564278,0.18906938030172
0.5247695965262565,0.4260310878837518,0.051661715621418955,0.0345075352880294,0.13035196301653015,0.10168672387726169,0.09280780801418205,0.07573721760583291,0.0694182027003546,0.1312966042242834,0.12710177452618726,0.17316169062723474,0.0942635936098809,0.11152807720910993,0.27504167655445644,0.18576301363459993
0.5258126758097321,0.42590760194945987,0.051679382346064104,0.03492076288777944,0.13086514712042577,0.1000253548753957,0.09031833812407374,0.07243692498572894,0.06818237661748502,0.1299693268313904,0.12693981858158457,0.173177639804217,0.09264995122564372,0.11136419934996389,0.2712961739349632,0.18245301287613455
0.5267297109180433,0.4255598560949991,0.05167500772612444,0.035323722859911755,0.13141020287546726,0.09844154441861583,0.08787723329784733,0.06922450934001913,0.06697836115374718,0.12867133250208362,0.12678238457885435,0.17315204289228436,0.09106570381609035,0.11120003955839516,0.2674933268519273,0.17914155841480325
0.527518811536269,0.42499020153297096,0.051649129837614396,0.035715761046549895,0.13198576924851307,0.09693424842219363,0.08548488165622836,0.0660995951227715,0.0658059977753803,0.12740089505708277,0.1266289383307865,0.1730858513059601,0.0895111137608584,0.11103391760482925,0.26363734880524087,0.1758308044708339
0.5281773011257755,0.4242006206882994,0.051602327081232725,0.036096266479343754,0.1325902822830133,0.09550234378720503,0.08314172080346988,0.06306168753151194,0.06466502433639132,0.1261563270468982,0.1264788912585731,0.17297988407682205,0.08798633444077078,0.1108642779877365,0.2597322965849981,0.17252293402647076
0.5287016790639426,0.4231925520084681,0.05153517937146783,0.03646465601969668,0.13322194680360716,0.09414465590141005,0.08084818535463044,0.060110183079134474,0.06355507643601097,0.12493606176073736,0.12633167849258772,0.17283473849838227,0.08649138527098864,0.11068970545790136,0.25578219394470675,0.16922019693899976
0.5290877742274949,0.4219669803362722,0.05144822897880651,0.03682035200156814,0.1338787316154201,0.09285997947710249,0.07860465226713075,0.05724438164015028,0.06247570824315855,0.12373871926153257,0.1261868190491384,0.1726507701170634,0.08502615218869508,0.1105089282277743,0.25179112481885657,0.1659249306352496
0.5293310137937413,0.42052471793903096,0.051341954834510976,0.037162755886886216,0.13455838770649647,0.09164709188596905,0.0764113971659806,0.05446349923797132,0.06142642097694728,0.12256315464215908,0.126043954884502,0.17242815366229847,0.08359041650720654,0.11032080786803208,0.24776329568896704,0.16263956333812896
0.5294267115804239,0.4188667235438324,0.051216774629143036,0.037491228057392544,0.13525847842768982,0.09050475851082505,0.07426858154806595,0.05176668079337342,0.0604066888315106,0.12140848765420757,0.12590286687841334,0.17216698468531028,0.08218389478820808,0.11012431548373983,0.24370306830991106,0.1593666003722715
0.5293703369878945,0.4169943823421146,0.05107307217169398,0.03780508730482844,0.1359764134412375,0.08943173001188362,0.07217627554630485,0.049153012082147673,0.05941597881977647,0.12027411380070908,0.12576346715165648,0.17186737949584702,0.08080627268137949,0.10991849440686852,0.23961496535751461,0.15610859472060631
0.5291577510364395,0.4149097295726744,0.050911233891924035,0.0381036323815363,0.13670948523562498,0.08842673177259741,0.07013449616819976,0.046621530240082976,0.0584537635722408,0.11915969783531306,0.12562576849698953,0.17152955845474363,0.07945722626239839,0.10970241029678798,0.23550365259086936,0.15286810362916287
0.5287853962709173,0.4126156110002579,0.05073168249738439,0.03838617420865394,0.1374549087443758,0.08748844612575674,0.06814324005964452,0.044171232288584376,0.0575195265116186,0.11806515130617512,0.1254898330173398,0.17115390949734297,0.07813642934643965,0.10947509016301576,0.23137390180378212,0.14964763364846584
0.5282504285293596,0.41011577659272797,0.0505349040302011,0.03865206752601548,0.1382098635713546,0.08661548825025238,0.06620250434461673,0.041801081315487244,0.056612759240203744,0.11699059627543182,0.1253557032402357,0.1707410295702805,0.07684354659102516,0.10923545789831109,0.2272305391603,0.14644957701712996
0.5275507807519818,0.407414906642538,0.050321467200281265,0.038900737529379996,0.13897153716940988,0.08580637686379902,0.06431229578741036,0.039510010115457156,0.05573295140320697,0.11593631761656982,0.12522332419459395,0.17029174256733642,0.07557821347978341,0.10898229022578651,0.223078383486652,0.1432761472137253
0.5266851520517528,0.4045185723509781,0.05009203419060278,0.039131699778205374,0.13973716622393625,0.08505950481678516,0.06247262935455827,0.03729692225902322,0.05487957370829682,0.11490270635701028,0.12509248164404194,0.16980709331155439,0.0743400053669001,0.10871422108567269,0.21892217876915715,0.14012933521436205
0.5256529189916253,0.40143313539389586,0.04984736250674687,0.039344572011640364,0.1405040726266654,0.08437312340919038,0.06068351794787117,0.035160690709867104,0.054052055170087016,0.11389019643343883,0.12496279183521312,0.16928831811216283,0.07312840361184994,0.10842979438524263,0.21476652455017683,0.1370109112913019
0.5244539701548666,0.39816559313876515,0.04958829786901373,0.03953907696103376,0.14126968992082142,0.0837453522348551,0.05894495558901204,0.03310015424184823,0.05324975876334407,0.11289919702064208,0.12483375011063358,0.1687367933888093,0.07194277808752576,0.1081275380381537,0.21061580720437034,0.13392247090620404
0.5230884693436452,0.39472337793287265,0.049315758605388844,0.03971503576733693,0.14203157604087302,0.08317420921378314,0.057256896627110636,0.031114112018315664,0.0524719667163479,0.11193002374384253,0.12470480691707991,0.1681539647667655,0.0707824011039472,0.10780603673093007,0.2064741343058228,0.13086549721330004
0.5215565567716891,0.39111412020013525,0.04903071247215035,0.0398723521679819,0.14278740858779326,0.08265764647636999,0.0556192336008354,0.02920131718552173,0.05171788613709117,0.11098284211682888,0.12457543904639072,0.16754125987109142,0.06964648433426218,0.10746399552349653,0.20234527849541448,0.12784141739812077
0.5198580137641725,0.38734538595769774,0.048734147271900806,0.0400109881726036,0.1435349597505502,0.08219358385659965,0.05403177714930633,0.02736047226415872,0.05098667198180071,0.11005764948396732,0.12444520416645877,0.1668999887540348,0.0685342196404865,0.10710029141347244,0.19823264812096236,0.12485164577720849
0.5179919829137826,0.3834244159415459,0.048427037016072254,0.04013093246149651,0.1442720492398652,0.08177993767855062,0.05249424323490013,0.025590230773138555,0.05027745495913023,0.10915430713762217,0.12431377545312998,0.1662312503849893,0.06744481366865226,0.10671401043461506,0.19413929902585636,0.12189761251477345
0.5159568991134725,0.3793579432966147,0.04811030891009563,0.040232164766741386,0.14499647514231126,0.08141464371350587,0.051006251428150226,0.023889206434523556,0.049589365727125106,0.10827260145645418,0.12418095425344965,0.16553589108015457,0.06637751380389185,0.10630446846428546,0.19006797807885673,0.1189807776733392
0.5137506889635111,0.3751521818940913,0.04778482388470215,0.04031462670355621,0.14570592922224068,0.0810956733392408,0.049567330877655594,0.022255986136903702,0.04892155243474518,0.10741230807248364,0.12404665997277659,0.1648145438548463,0.06533162478784411,0.10587121466335085,0.18602117616376906,0.11610263116150057
0.5113711161243191,0.3708129837012421,0.047451380995732685,0.040378215146589985,0.14639792573298227,0.08082104212149288,0.048176926082611725,0.020689142440608616,0.04827319042179402,0.1065732499899913,0.12391089772229824,0.16406771756077185,0.0643065158802434,0.10541401732355223,0.18200117809174032,0.11326467990880737
0.5088161294200528,0.3663460663290213,0.04711073973840518,0.040422802841306046,0.14706979131510864,0.08058881026611242,0.046834397823617084,0.01918724411871705,0.04764348337857658,0.10575534827659824,0.12377370560852602,0.16329588845145943,0.06330161888484555,0.10493283279111694,0.1780101071908908,0.11046842423100076
0.506084160249688,0.3617572272260391,0.046763645611891516,0.04044827273587877,0.14771873288231016,0.08039707466127496,0.04553902111144333,0.017748864473601834,0.047031655829862656,0.10495866394894618,0.1236350847929442,0.16249957507547141,0.06231641766358064,0.10442775899663995,0.17404996453346308,0.10771532580774561
0.5031743570197059,0.35705251885074435,0.04641085037718931,0.040454551278802306,0.14834194829318265,0.08024395253736206,0.0442899869874985,0.016372587314646064,0.046436937404554485,0.10418342973851978,0.12349492359313997,0.16167939235546572,0.06135042996736582,0.10389897587419386,0.17012266259682368,0.10500676995506755
0.5000867472407455,0.35223838047906353,0.04605312502364783,0.04044163528540422,0.14893673833848156,0.08012755710391731,0.04308641306441395,0.015057010627511535,0.045858539930729754,0.10343007056968666,0.1233529465308339,0.16083608159727605,0.060403182563873205,0.10334667553580341,0.16623005299894347,0.10234402492855495
0.49682232112868574,0.347321724084162,0.045691265276555565,0.04040961120426025,0.14950060232904536,0.08004596585887255,0.04192736023568128,0.013800748090588996,0.045295631548535394,0.1026992118271709,0.12320872091219438,0.15997051418672992,0.05947418078142597,0.10277098789027975,0.16237394782865508,0.09972820507838209
0.49338303389221655,0.34230997353542414,0.045326089994768476,0.04035866608308724,0.15003131042915993,0.0799971826671147,0.040811850169032354,0.012602428687321785,0.044747319481203855,0.10199167484258254,0.12306171693861719,0.15908366797236878,0.058562875573396636,0.10217192004482176,0.15855613402811422,0.09716025307965315
0.48977172727020746,0.33721105814589175,0.04495843326693955,0.0402890900165185,0.1505269471090313,0.07997910122339891,0.03973888065371863,0.01146069471907002,0.04421265386088093,0.10130845948886857,0.12291138704220946,0.15817657678370228,0.05766863837032093,0.10154933978886208,0.15477838029646257,0.09464095152889115
0.48599197421658785,0.33203336329295396,0.04458913138269521,0.04020127032306562,0.15098592176941214,0.07998948978816128,0.03870743741022935,0.010374198544336534,0.04369065138796739,0.10065071432151049,0.12275723815105756,0.1572502551518853,0.056790758695912005,0.10090301332586574,0.15104243608148268,0.09217095411951379
0.48204785383988313,0.3267856423894485,0.044219006105835255,0.04009567811768791,0.15140694458717152,0.08002601057492745,0.03771650122496091,0.00934159836404959,0.04318032616891385,0.10001969530980304,0.12259888818256506,0.15630560597748935,0.05592846794934922,0.10023267158844704,0.14735002241539888,0.08975081913388185
0.47794366670658095,0.32147689583789846,0.0438488457961251,0.03997284829773519,0.15178896779148096,0.08008626193315511,0.03676504960439067,0.008361553349877385,0.042680717934398954,0.09941671480640824,0.12243610403793413,0.15534334050170617,0.055080976270864085,0.09953807629118187,0.14370281462783624,0.08738103726194459
0.4736836033126869,0.31611622370985243,0.04347938616237987,0.039833354228410126,0.1521310947593041,0.0801678242225998,0.03585205254219072,0.007432718402052543,0.042190914407034874,0.09884308294470807,0.12226881941344087,0.15436396046088036,0.054247509034670856,0.09881907571644512,0.14010241731643033,0.08506205276005843
0.46927141696236346,0.31071265971138934,0.04311129441697005,0.039677778591234704,0.15243246138263314,0.08026830164246422,0.03497646243828273,0.006553739676826307,0.041710066902537105,0.09830004407059123,0.12209713182991191,0.1533678215459981,0.05342733804015592,0.09807564869069324,0.13655033234350622,0.08279427818831085
0.4647102367778725,0.3052749944893154,0.0427451629267201,0.039506682817683735,0.1526921101931499,0.08038535823269222,0.03413719942299499,0.005723253594807901,0.041237398714816874,0.09778871895671025,0.12192127937261771,0.15235523976239645,0.05261980603684267,0.09730793570229491,0.13304792101658006,0.08057810315382487
0.4600026375247707,0.2998116165547548,0.04238151419358024,0.03932058219683769,0.1529089132324991,0.08051674645006539,0.03333313789932467,0.004939890846965483,0.04077220626875395,0.09731007865678878,0.12174159869038448,0.15132659420634018,0.05182434348577015,0.09651625660990931,0.12959636338516134,0.07841389759675761
0.4551509117391515,0.2943304383421225,0.04202081098709202,0.03911993822938881,0.15308159596913243,0.08066032697946282,0.0325631049312957,0.004202283239974753,0.04031385339029851,0.09686496531541058,0.1215584667760865,0.1502824071965324,0.05104047679448868,0.09570111488577854,0.12619662574000395,0.07630201020321564
0.4501573939655637,0.2888389496888316,0.041663464903182186,0.03890517190737503,0.1532088463194335,0.08081407875444133,0.03182589540970312,0.0035090703954172423,0.03986175932269417,0.09645414078033815,0.12137222988126005,0.14922339610491223,0.05026782764923452,0.09486318882075757,0.12284945575686108,0.07424276253570011
0.44502474682430126,0.28334435044934014,0.04130984139032189,0.03867668761259459,0.15328944837977987,0.08097609851009337,0.031120296885599703,0.002858905149204376,0.0394153813063716,0.09607833571626305,0.12118312818171421,0.1481504933030998,0.04950610348449205,0.09400331057155768,0.11955541247071191,0.07223643945767698
0.439756184065537,0.27785368731351495,0.04096026147404557,0.038434896221794954,0.15332240034404884,0.08114458955403243,0.030445114672332067,0.002250457415410849,0.0389741926483349,0.09573828928807121,0.12099124017115241,0.14706483303718196,0.04875507955291139,0.09312243433599617,0.11631491487265848,0.07028327641302834
0.43435562243171183,0.27237396371803707,0.04061500052747585,0.03818023359886834,0.1533070032588723,0.08131783980307057,0.029799193162748965,0.0016824163317507635,0.03853765725391954,0.09543477858197934,0.12079647660811012,0.14596770652451405,0.04801457346412769,0.09222159528015651,0.11312829027347747,0.06838344411768771
0.4288277582170497,0.2669122186599352,0.04027428447916914,0.03791317409304451,0.1532429152617863,0.08149418948750334,0.02918143199798906,0.0011534905884053185,0.03810520415460244,0.09516863759953323,0.12059862590497879,0.14486048887999847,0.04728441342932148,0.09130186109826022,0.10999581566234434,0.06653703123750847
0.423178068595064,0.2614755736657423,0.03993828383871498,0.037634238903356085,0.15313016816591613,0.0816719892740629,0.02859079608799265,0.0006624069515399454,0.03767621200894824,0.094940766212535,0.1203974213863192,0.14374454339874546,0.04656440328771992,0.09036427825428678,0.10691775085559203,0.06474402682061556
