EMG01_right_gast_med,EMG02_right_glut_max,EMG03_left_gast_med,EMG04_left_glut_max,EMG05_right_glut_med,EMG06_right_bic_fem,EMG07_right_rect_fem,EMG08_right_vast_lat,EMG09_right_vast_med,EMG10_right_tens_fasc_lat,EMG11_left_glut_med,EMG12_left_bic_fem,EMG13_left_rect_fem,EMG14_left_vast_lat,EMG15_left_vast_med,EMG16_left_tens_fasc_lat
-0.007998612340758394,-0.01540364374843692,0.018236106058543203,0.0338048840038162,0.009555218897705277,0.04341975062978113,0.03630293775538723,0.01614917223661487,0.018494977345710914,0.10441899215919548,0.009227123984343227,0.1061054677121713,0.0002939930567027022,0.036851362940587794,0.022785038987065735,-0.0007076071129133463
0.0080868053714361,-0.009349060760251852,0.020707776621288084,0.03611575708525324,0.01087671502587101,0.043350211968440494,0.037926272912388946,0.017114577474138266,0.018471750607311776,0.10692488431960122,0.015590150496995157,0.11172563324179592,0.0010471864536725811,0.03663876300745325,0.023120620689258513,-0.0001975216702539193
0.02409953440964305,-0.0033535099954123994,0.023208278695894837,0.0384182370333672,0.01218571697506675,0.04328486885250697,0.03954892258768908,0.01808119862616841,0.01845688842084165,0.10943585487484436,0.021905957530400273,0.117358910545588,0.0018048942137350076,0.03642929215889586,0.02350019871708428,0.0003129937361032355
0.04001631520665559,0.002574857836752712,0.025735576467312792,0.040709885810788805,0.013480028231795433,0.0432236868261736,0.041168282098748704,0.019047851152823488,0.01845080592815427,0.11194756820388717,0.028166327407603414,0.12299787695367169,0.002566419544028145,0.036223124029687685,0.02392541548205755,0.0008230813692798091
0.055814657796501965,0.00842793657702099,0.028287728793604146,0.04298822671507905,0.014757591331248786,0.04316660739123229,0.04278183385848584,0.02001337885633079,0.018453895820653498,0.11445572757904919,0.0343630345250655,0.1286351691316349,0.0033310914753792186,0.036020410672409034,0.024397888623803068,0.001331962685820827
0.07147312467637047,0.014197656867165932,0.030862927616663486,0.04525076069078922,0.016016558393949023,0.04311355109736115,0.04438718606659079,0.02097666736274948,0.018466524706338288,0.11695612993133471,0.040487852433490505,0.13426357265320893,0.0040982745556636105,0.03582128012606677,0.024919217764856203,0.001838957339307047
0.08697154642722853,0.019876009056459164,0.03345952006176165,0.04749500848958209,0.017255344934523374,0.04306441871033259,0.04598209365125347,0.021936653611388426,0.01848903188009128,0.11944469051152218,0.04653259787466893,0.13987609193725428,0.004867376136464169,0.035625831322617214,0.02549099117799369,0.002343489506900644
0.10229116019739995,0.02545510771553193,0.03607601443855693,0.049718558636286055,0.018472658409658033,0.043019089049975444,0.04756446187954277,0.022892331144298263,0.018521729482155167,0.12191743754834888,0.05248920561536839,0.1454659896326011,0.005637850980392147,0.035434127182906325,0.026114786753329764,0.002845084198799549
0.11741466365594011,0.030927284662709963,0.03871107074215554,0.051919111242701974,0.019667503754964392,0.042977412510461964,0.0491323333545661,0.023842751028940443,0.01856490316805506,0.12437047786713266,0.05834981783310457,0.15102678695023175,0.006409202983616095,0.0352461866429021,0.026792167495874555,0.0033433560008669923
0.13232618074185948,0.03628519463916017,0.04136347685626344,0.05409451425675126,0.02083916906109918,0.042939199741982674,0.05068385970013159,0.02478701835831262,0.01861881253771724,0.12679993568858336,0.06410687695579095,0.15655221947369063,0.0071809839241587705,0.03506197625575444,0.027524673164782423,0.0038379926378631726
0.14701113968007853,0.041521922751653985,0.044032112231915076,0.056242789475629995,0.021987195190218,0.04290420703243939,0.052217259837754895,0.025724284402344005,0.018683690743858925,0.12920187093967533,0.06975321422141505,0.16203614667576752,0.007952789280980666,0.03488140260170477,0.02831380967658666,0.0043287355752410295
0.16145606768760165,0.04663108436993956,0.04671590117238981,0.05836214626868767,0.023111333186723506,0.04287212532744572,0.05373076760322227,0.026653734593803886,0.018759742958099,0.13157220259052518,0.07528212693573506,0.16747242194728199,0.008724251298830183,0.034704308138537365,0.02916103869949728,0.004815359429275779
0.17564831085521734,0.05160690842467181,0.04941376220607934,0.06045098165577708,0.024211493275932413,0.042842582301238157,0.05522258064738571,0.02757457266388707,0.018847143742519966,0.13390668577481185,0.08068743829589652,0.17285476449064135,0.009495029608770206,0.03453047250087354,0.030067771403117408,0.005297653325640501
0.1895756915799134,0.05644429580962516,0.05212457148039754,0.06250786613173828,0.0252876890665747,0.04281515916528524,0.05669083812928768,0.02848600138638779,0.01894603437519964,0.1362009677714276,0.08596353469615799,0.17817671719286876,0.01026479984353443,0.03435961793818804,0.031035368207522566,0.0057754105160247515
0.20322616331958626,0.061138846062708335,0.054847160065426975,0.06453151541373921,0.026339981744210563,0.04278941469822602,0.058133644187108625,0.029387202145974057,0.019056522275945235,0.13845069214045325,0.0911053768095025,0.18343173606031324,0.011033241084059908,0.03419141609589934,0.03206514126227391,0.006248430074232055
0.21658761887570216,0.06568684749126387,0.057580344150254384,0.06652074903733173,0.027368435984965182,0.04276490902760761,0.05954911995567059,0.030277320356356746,0.01917868367860405,0.14065160821059552,0.09610848222087112,0.188613358954931,0.011800024854273191,0.03402549485023844,0.03315835544106586,0.006716526180310837
0.22964797317739752,0.07008522825252883,0.06032296815610734,0.0684744373859966,0.02837310491299683,0.042741223893790016,0.06093545771118761,0.031155465038203725,0.019312568298401896,0.14279966739991148,0.10096887882938217,0.19371537759099886,0.012564810425122336,0.033861445233002954,0.034316226417042746,0.007179537951537926
0.24239544554310719,0.07433146853480388,0.06307394453794772,0.07039144070434741,0.029354047802510594,0.042717977834332864,0.06229096610290124,0.032020722680524444,0.0194582041746956,0.14489109988949492,0.10568302966519562,0.19873197823059852,0.013327248279424919,0.0336988287049562,0.03553991592248439,0.007637336881251259
0.25481888203772807,0.07842347668940956,0.06583228458318613,0.07227055446924867,0.030311363270132535,0.04269483503879867,0.06361410355617657,0.03287217757070846,0.019615601855852916,0.146922466054391,0.11024773110720418,0.2036578383627437,0.014086987786721352,0.03353718494783517,0.036830525291813826,0.008089831669476055
0.2669080351633506,0.08235943466583581,0.06859711818942922,0.07411048925796336,0.031245220448503586,0.042671507030217104,0.06490349753910514,0.03370893203024039,0.019784757625756808,0.14889067829663297,0.11465998764956106,0.20848816936247033,0.014843684341682673,0.033376040192593916,0.03818909035195693,0.00853697058694116
0.27865377782858886,0.08613763539413721,0.07136770113861433,0.07590989900566673,0.03215588275170304,0.04264774679108593,0.06615794814027397,0.03453012423839526,0.019965655562322233,0.15079299047233635,0.11891687001781445,0.21321869838580473,0.015597004158956136,0.033214915905424136,0.03961658070518758,0.008978741548997728
0.2900482391932186,0.08975637501951886,0.07414340901575327,0.07766743780521929,0.033043724018061056,0.04262333543130308,0.06737641526814647,0.03533494277102018,0.02015826831764851,0.15262695386634,0.12301538759989196,0.21784558637815463,0.016346626326600226,0.03305333743822628,0.04111390302324125,0.009415170096311945
0.30108485428936393,0.09321396333030986,0.07692371761210319,0.07938181891748423,0.03390923708455922,0.04259806196294866,0.06855798968930664,0.03612263708306485,0.02036255661129274,0.15439034051343745,0.12695243976991372,0.22236528297250824,0.01709224186325337,0.032890842041531754,0.04268190551625741,0.009846315485524131
0.31175832406471904,0.09650883990938833,0.07970817037268156,0.08105186564770102,0.03475303509093077,0.04257169717453267,0.06970184901767075,0.036892523299401736,0.020578467524899655,0.15608103647735222,0.13072488051468167,0.22677432316756535,0.01783354968296461,0.03272698546332841,0.04432138148446265,0.01027226509573336
0.32206448736546167,0.09963972647334814,0.08249633416109807,0.08267655151614584,0.03557584604007592,0.042543966906910285,0.07080720059919662,0.03764398484435789,0.020805931770378313,0.15769691126105448,0.13432965239684583,0.23106911186612705,0.018570249539920307,0.032561346242897006,0.04603307112854185,0.010693127366268361
0.33200011103637894,0.1026057652406452,0.08528774527422935,0.08425502759817351,0.03637850134625462,0.04251453861618736,0.07187321968157794,0.03837646762965454,0.021044860169890066,0.1592356943672789,0.1377639293920712,0.23524582205759983,0.01930203219611567,0.032393526773972,0.04781766122903904,0.011109023497140954
0.3415626084445484,0.10540662745566645,0.08808185410314935,0.08578663546665656,0.037161919272463984,0.04248303182394292,0.07289900729485864,0.039089469726145,0.021295139628494983,0.16069492822599826,0.14102524501819078,0.23930049967558964,0.020028568429527934,0.032223150269067836,0.04967578248027692,0.011520078163419685
0.3507497000730119,0.1080425871709771,0.09087799075359182,0.08727090481295681,0.037927084282968274,0.042449045687935026,0.073883594454103,0.039782525660134106,0.021556628893546627,0.16207203834125275,0.14411160014328878,0.243229310394319,0.020749501661852278,0.032049852911973646,0.051608004440211123,0.011926409950808101
0.3595590536498471,0.1105145574994113,0.09367537101478296,0.08870753551678841,0.03867502340156803,0.042412189776254515,0.0748259905494874,0.040455185692984896,0.0218291543757562,0.1633644767534027,0.14702154542730222,0.24702880513353667,0.021464449021477476,0.031873270734325145,0.05361482821773189,0.012328123883359928
0.36798801323000396,0.11282408869897231,0.09647313454446832,0.09009636464230451,0.0394067806594313,0.042372111025444054,0.07572524910768581,0.041106990655633655,0.022112506255619276,0.16456987366451395,0.14975423414062805,0.2506961433474412,0.02217301000901943,0.031693021672678665,0.05569667715042173,0.012725309482305429
0.37603355769164626,0.11497332951351481,0.0992703917645726,0.09143731951946169,0.040123390637327526,0.042328514990064174,0.07658052978595643,0.04173744541633129,0.022406435034838475,0.16568617031282099,0.1523094421289581,0.2542292525817786,0.022874777817820043,0.03150868832462697,0.05785388582029989,0.013118045061116586
0.383692503363034,0.11696495504613563,0.10206626536278407,0.09273035869314221,0.040825852564511836,0.04228118038733323,0.07739114911699263,0.042346000672570695,0.022710648807326206,0.1667117257202931,0.15468755295881678,0.2576269081772486,0.02356934965885644,0.03131981398907414,0.06008668857892817,0.013506405143638336
0.3909618183940893,0.11880206599837446,0.10485992248495969,0.0939754034588017,0.04151510960099932,0.04222996637220592,0.07815661704580461,0.04293205414061408,0.023024811764100137,0.16764539094895153,0.1568895077597103,0.2608887226384544,0.02425633460253396,0.031125919667536264,0.062395210674142144,0.013890467876960374
0.3978389271342293,0.12048806529907986,0.10765059627964216,0.09517227351908215,0.04219204123356492,0.042174812415887115,0.07887665693110049,0.04349497081232361,0.023348544125868703,0.16848654587553988,0.15891672091610057,0.2640150413045864,0.024935358060783255,0.03092653506568184,0.06477946496488692,0.0142703213331539
0.4043219634701822,0.12202651893056858,0.11043759609706653,0.09632065906662743,0.04285747137640871,0.04211573106324221,0.07955120744645122,0.04403411157011929,0.02368142301843753,0.16923509520416807,0.16077096445781816,0.2670067489020579,0.02560606216040567,0.0307212325801974,0.06723935354058497,0.014646068402414118
0.41040996346986053,0.12342101244065494,0.11322030622905287,0.09742014923270349,0.04351218498939629,0.04205279418120242,0.08018040568749164,0.044548861503233936,0.024022983853020378,0.16989142243366648,0.16245422562574258,0.26986499948495496,0.026268101452936232,0.030509659108544016,0.06977467106022195,0.015017829996665177
0.416102990203777,0.12467503552026632,0.11599817355758775,0.09847029587398101,0.04415694533365363,0.04198611356408745,0.08076455173985014,0.04503865491507889,0.024372722292952627,0.17045630270305323,0.16396854351586004,0.272590919625564,0.026921133663757583,0.03029156346410617,0.07238510771578285,0.015385746312843129
0.4214021862162587,0.12579194483449713,0.1187706848397491,0.09947068109086854,0.044792509386783745,0.041915816929124126,0.08130405594940375,0.045502995863020444,0.024730097056466033,0.17093077774631343,0.1653158519878395,0.275185413988719,0.0275648054932316,0.03006681724943111,0.07507025131469477,0.0157499759553437
0.4263097517554255,0.12677501833388954,0.12153733460049752,0.10042097591298409,0.04541964120155623,0.04184202042376924,0.08179937111449152,0.04594147321918748,0.02509453370280177,0.17131599846018322,0.16649789858940695,0.2776491952650654,0.028198736352705176,0.029835427297602905,0.07782958845534807,0.01611069279231769
0.43082884951791767,0.12762755388523653,0.12429758475499425,0.10132098740696871,0.04603912288377546,0.041764801252954564,0.08225091908429177,0.046353769440412564,0.025465429411740986,0.17161305889224537,0.16751629024082001,0.27998300437335666,0.028822509112037535,0.029597538236808434,0.08066250486471277,0.016468080521563375
0.4349634392964714,0.12835296226550302,0.12705081716800257,0.10217069192695717,0.046651762752427085,0.04168418034348352,0.08265903983534224,0.0467396624811821,0.025842158614407258,0.17182288862254963,0.1683726269185205,0.2821878785134639,0.0294356763229409,0.029353424346507104,0.08356828504266972,0.016822325044653454
0.438718048498203,0.12895483824841086,0.12979628040856234,0.10297025280559187,0.04725840016022963,0.04160012503025264,0.08302399474619415,0.04709902056608592,0.02622407918737535,0.1719462713175371,0.1690686505562742,0.28426536851705286,0.030037779563885307,0.02910347061536625,0.0865461113955981,0.017173604884187777
0.44209748696912715,0.12943700851144166,0.13253303783005993,0.10372002145110708,0.04785990642330414,0.04151256961861693,0.08334602264168521,0.04743178984478081,0.026610538801642727,0.17198397608600952,0.16960637454826435,0.2862176760342334,0.030628373214457723,0.028848143722132184,0.08959506302339894,0.017522081042743942
0.44510651682861735,0.1298035563097921,0.13525993726348487,0.10442052154489705,0.04845718135474167,0.04142144261383566,0.08362541653847509,0.047737975267182486,0.027000880936614555,0.1719369265293783,0.16998818621368525,0.28804770517415595,0.03120704704495209,0.028587954466522566,0.09271411423602673,0.01786789037713187
0.44774952447385874,0.13005882396639348,0.13797561958237112,0.1050724167905333,0.049051145028858774,0.04132669268916873,0.08386259471184057,0.048017615322092685,0.0273944500343002,0.1718063525268025,0.17021691866958133,0.28975903110330237,0.03177344531499635,0.028323418783462426,0.09590213271564887,0.018211146516484193
0.45003032472173565,0.13020739516660912,0.14067855803448337,0.1056764634131548,0.049642724621686084,0.04122831100991341,0.08405815665088513,0.048270751561183156,0.02779059528157247,0.17159390639518027,0.17029589003812903,0.2913557951824669,0.03232728076768985,0.02805503579662917,0.09915787702270083,0.018551947379519415
0.4519522146860636,0.1302540597899942,0.14336710755696017,0.10623344931073814,0.05023283646894216,0.04112634912292278,0.08421292057315936,0.048497395235633796,0.02818867256453424,0.17130173698224826,0.17022890940226995,0.2928425416968305,0.032868342135436435,0.027783298049938048,0.1024799928988616,0.01889038476171173
0.453518233006475,0.13020376454089844,0.14603955260809712,0.10674412238092539,0.05082236383357005,0.04102093172032156,0.08432794025697363,0.04869749955116109,0.028588044230882004,0.17093251787965766,0.1700202503555507,0.29422401455171004,0.03339649411926513,0.02750872602021432,0.10586700758972135,0.01922655271510603
0.45473148228912597,0.13006155294969593,0.14869415039238784,0.10720912015046415,0.05141213271716394,0.040912263723946775,0.08440450020146353,0.04887095209912796,0.028988076413283877,0.1704894288374149,0.16967459431610066,0.2955049332523136,0.03391166924682289,0.027231907263715913,0.10931732124038594,0.01956055349173166
0.45559542556716615,0.12983249841468272,0.15132916773131014,0.10762893263094395,0.05200289328410651,0.040800631321295674,0.08444408945064834,0.04901759291518514,0.02938813379749449,0.16997609240198955,0.1691969469479766,0.2966897752969581,0.03441385152685159,0.026953528911861774,0.11282919434811699,0.019892500449864323
0.4561141308992347,0.12952163385953794,0.15394290985998238,0.10800392310808118,0.052595316824842996,0.040686396814415576,0.08444835572187975,0.0491372466718035,0.02978757185111467,0.16939647056534865,0.16859253202113308,0.2977826182182976,0.03490305236266866,0.026674400482125875,0.1164007303133106,0.020222517495057945
0.45629245427540577,0.129133881319466,0.156533739521038,0.10833439114518102,0.05319000929549893,0.04056998741053798,0.08441904266722765,0.04922975556466461,0.03018572665102022,0.16875472859808077,0.16786666781924448,0.29878709905799516,0.035379280580813036,0.026395466141915923,0.12002985232169633,0.0205507348610918
0.4561361536798409,0.12867398939912528,0.1591000848898324,0.10862064466553381,0.05378753176395602,0.04045187836903278,0.08435791408487796,0.04929500796540767,0.030581902549895103,0.16805507508091574,0.16702463175809368,0.29970648501307934,0.03584251489314296,0.026117806399945924,0.12371427829087063,0.020877281315972232
0.45565193011694793,0.12814649709481396,0.16164043511071358,0.10886306405714621,0.054388418568573293,0.04033257119984866,0.08426667853781601,0.04933296178769813,0.030975359918689233,0.1673016066458102,0.16607153520856707,0.30054378476716354,0.03629269504241632,0.02584262997476076,0.12745150709745184,0.02120227318177462
0.4548473945245384,0.127555737713117,0.16415332256420587,0.10906215386041668,0.054993189721354405,0.04021256785923031,0.0841469474831115,0.04934366174090061,0.03136530927551484,0.16649822444788226,0.16501226256792684,0.30130184485034023,0.03672973979062202,0.025571257240480483,0.13123882743175797,0.021525802520240427
0.4537309626606,0.12690587143238782,0.1666372914228333,0.1092185797664749,0.05560235650364359,0.040092343148259435,0.08400025261653621,0.04932724989784281,0.031750916622786604,0.1656486704240926,0.1638515102419264,0.3019834198036698,0.03715358075003191,0.025305097133323132,0.135073344772969,0.021847930589533576
0.4523116831488257,0.12620092313482617,0.16909085257541012,0.1093331893279591,0.05621641965193724,0.03997232250122188,0.08382810629854258,0.04928396926906423,0.03213131701689429,0.16475664534525927,0.16259388997687987,0.30259122109109216,0.037564197144906865,0.025045619695838083,0.1389520153871648,0.0221686912678628
0.45059900678639975,0.12544481314500325,0.17151242557345986,0.10940701553151547,0.05683586004192383,0.03985287650977434,0.08363206949450304,0.04921416034498198,0.03250563060505645,0.1638259359420791,0.16124403838777768,0.3031279499599312,0.037961645390062214,0.024794326531652245,0.14287168188959468,0.02248810148561378
0.44860250783036554,0.1246413790414106,0.173900268833358,0.10944126316511125,0.057461122312392615,0.03973433552514865,0.08341380799009358,0.049118250829610056,0.032872978634464096,0.1628605149345703,0.1598067075157807,0.30359631888232913,0.03834608180046901,0.024552721604794717,0.14682910822520615,0.02280617231116927
0.44633157014973324,0.12379438915781345,0.17625240783104115,0.10943727869357422,0.058092592387879755,0.039617014518584764,0.08317513213068974,0.048996739035553516,0.03323249889579136,0.16186460654171458,0.15828683191117987,0.30399906503127566,0.038717777186000134,0.024322287325179787,0.1508210118048835,0.023122917194311712
0.44379509150207375,0.12290754868819898,0.17856659092501576,0.10939650509264363,0.05873057391801072,0.03950123753045008,0.08291801861586319,0.048850171631807125,0.0335833601232932,0.16084271600286473,0.15668957035638892,0.30433895768913605,0.03907712259035014,0.02410447406366342,0.15484409044838612,0.023438356221093044
0.44100133851556483,0.12198449951481288,0.18084030178272642,0.10932042374741552,0.059375276285222656,0.039387357995023055,0.08264461399470314,0.04867911662668131,0.033924774822962876,0.15979962393377733,0.15502032164438392,0.30461879979407064,0.03942462595926666,0.023900705489347317,0.1588950418138375,0.023752515793568588
0.43795804320148585,0.12102881499518958,0.18307082165265573,0.10921048606223355,0.06002682317566779,0.03927577430952327,0.08235722059363264,0.0484841326226871,0.03425600994492564,0.1587403484321598,0.1532847151688417,0.3048414222380878,0.03976090002977937,0.02371239107013434,0.16297057313580743,0.024065423499645012
0.4346726592644955,0.12004399097801108,0.1852553111539971,0.10906804362237867,0.0606852747627449,0.03916694023696308,0.08205826660004914,0.04826573739730001,0.03457639476809754,0.1576700796141552,0.15148857838625196,0.30500966825282627,0.04008664218567758,0.023540936475742586,0.167067399345344,0.024377098319525628
0.43115263788234587,0.1190334342796399,0.18739089153746033,0.10889430170162667,0.06135065077195402,0.039061369945557554,0.08175026286492829,0.04802438517881906,0.03488532533835078,0.1565940926090826,0.14963788439458772,0.30512636441508434,0.04040260740097013,0.023387749527471868,0.1711822280000258,0.024687537787675934
0.42740566029207533,0.1180004497561939,0.18947471902416826,0.10869032270654164,0.062022948240992457,0.038959637684733386,0.08143574962818528,0.047760464698093016,0.035182264811187886,0.15551764590442219,0.14773868385572558,0.3051942745581258,0.04070957567766345,0.02325424253442191,0.17531172990292962,0.024996707685109358
0.4234398154289359,0.11694822696393146,0.19150404904033422,0.10845707620058105,0.06270215210278615,0.03886237227536595,0.08111723677735076,0.04747431902423835,0.035466739110530665,0.1544458763127722,0.14579702619679916,0.305216033196547,0.04100831645745105,0.023141832044749802,0.17945249482658765,0.025304541783113785
0.4192637180253179,0.11587982722704002,0.19347628723941027,0.108195506803922,0.06338823744563275,0.0387702467491201,0.08079714788726276,0.04716627536370369,0.03573832743776208,0.1533837176724825,0.14381887540348623,0.30519405592002846,0.04129955825876658,0.02305193708059637,0.18360097236777156,0.025610953088898412
0.41488656578252764,0.11479817173897694,0.1953890243598636,0.10790659803719771,0.0640811628935787,0.0386839636103659,0.08047779115018656,0.046836674110818224,0.035996647355055915,0.15233587954698752,0.1418100306353022,0.3051304260302567,0.04158397839899534,0.02298597683174018,0.18775340024070675,0.02591585041123395
0.410318137270343,0.11370603112184643,0.19724005222150245,0.10759142524698591,0.06478085519007341,0.03860423631722019,0.0801613722764707,0.04648589360862164,0.03624133442199614,0.1513068905201057,0.13977607430207498,0.305026781310056,0.04186221900320503,0.022945368586219497,0.19190573689452375,0.02621915394678346
0.40556873491369627,0.11260601666666126,0.1990273585308285,0.10725119570239293,0.06548718569905929,0.03853176768937187,0.07985003421094489,0.046114369819270265,0.03647201667316574,0.15030116820421782,0.13772236864834816,0.3048842714342623,0.042134917590495896,0.02293152641421399,0.19605363633059517,0.02652080718146489
0.4006490796666347,0.11150057328298778,0.2007490986630009,0.10688727448648896,0.06619994326156001,0.038467227039193704,0.0795458983823536,0.0457226102944229,0.036688288630935796,0.14932307975649342,0.1356540924959891,0.3047036376158719,0.042402738049832835,0.022945860833098013,0.20019248790572852,0.026820783961274387
0.39557016567421366,0.110391974005602,0.2024035432377029,0.1065011953809558,0.06691881632418623,0.03841123210005242,0.07925109628492853,0.04531120205041027,0.03688969858866018,0.14837698204300231,0.13357628775921693,0.30448537794606184,0.04266639696857277,0.022989779401129222,0.20431749955299072,0.027119089912600123
0.39034308435175535,0.10928231574407354,0.20398900113506932,0.10609465654168988,0.06764339764342005,0.03836434511772457,0.07896778987298234,0.04488081318427049,0.037075760162075484,0.1474672415263235,0.13149389484671253,0.30422993229560363,0.04292668457283395,0.023064687942816544,0.20842379160632465,0.02741575778444695
0.3849788278743131,0.10817351582441279,0.20550371862395816,0.10566950136930288,0.06837320987918848,0.038327085566905554,0.07869818091721892,0.04443218830711062,0.0372459819453393,0.14659823524532042,0.1294117725813986,0.3039378559948664,0.04318447978349124,0.023171991922720722,0.21250648754748008,0.027710836712134708
0.3794880821031327,0.1070673087662388,0.20694576403406,0.10522768556990494,0.06910773901702531,0.038299951164635714,0.07844451013123528,0.043966138111611715,0.037399901788668526,0.14577433531997405,0.12733470398307645,0.3036099703320346,0.043440759117589656,0.023313097373169386,0.21656079743909215,0.02800437582974708
0.37388103792017185,0.10596524267073025,0.2083129368853552,0.10477123195366876,0.06984646596301144,0.03828343826530488,0.07820904741475627,0.043483523620631105,0.03753711873782536,0.14499988019764015,0.12526739019517077,0.30324747814443964,0.043696599362801354,0.023489410756668765,0.22058208981573305,0.028296405018521483
0.36816729063539455,0.10486867456989887,0.20960276050918272,0.10430217500572575,0.07058889284983863,0.038278058318048626,0.07799407494866888,0.04298523587296921,0.03765732041387408,0.14427913633411482,0.12321443552249792,0.3028520341981858,0.043953174118315105,0.02370233721045332,0.22456594799067398,0.028586921390100647
0.3623558787638509,0.10377876484637863,0.2108125748265771,0.10382249766128515,0.07133456248563222,0.03828434951062599,0.07780186509996871,0.04247217197979473,0.03776030424869345,0.14361625417075516,0.1211803269408623,0.30242576259229786,0.044211744431743236,0.023953276774641458,0.22850820709553224,0.02887589137252936
0.356455421303818,0.1026964736709775,0.21193968354376924,0.10333406964382688,0.07208306971917827,0.03830288295837037,0.0776346551498603,0.0419452086213744,0.03784599128241793,0.1430152221432556,0.11916941152484667,0.3019712168745307,0.04447364387679101,0.024243618432612624,0.23240496869192273,0.029163268473227748
0.35047427256813235,0.10162256476186336,0.21298150605991473,0.1028386121004835,0.07283406387145686,0.03833426310997099,0.07749462075724121,0.041405176765099486,0.0379144316183669,0.1424798220690161,0.11718587502557852,0.3014912826020726,0.04474025852311594,0.024574732067914228,0.23625259046295907,0.029449017683725712
0.3444206533763085,0.100557618822151,0.2139357134172073,0.102337709743324,0.07358724178063838,0.03837912241177151,0.07738384983743517,0.04085284738334162,0.03796580109265442,0.14201359185445556,0.11523372434696738,0.30098902634821445,0.045013002360921026,0.024947958795116465,0.24004764928890432,0.029733138966778063
0.3383027513675992,0.09950205394189825,0.21480033956136863,0.10183286048023059,0.07434233141567811,0.038438110664373575,0.07730431820688899,0.04028893635028815,0.03800038921638723,0.14161980642933558,0.11331677596910457,0.30046749925032235,0.045293288867195906,0.025364601671901858,0.2437868769144091,0.03001568700476601
0.33212879014140523,0.09845614958958804,0.21557385976556098,0.10132553527003667,0.07509906642321552,0.038511879877912304,0.07725786952090898,0.03971412415075009,0.03801857895131873,0.14130148149478397,0.11143865152036816,0.2999295254037581,0.04558250053852134,0.025825921015521298,0.24746706840254337,0.030296786071319057
0.3259070681806987,0.09742007278625958,0.2162552292623837,0.10081723207733573,0.0758571523740133,0.038601065743905365,0.07724620460889157,0.039129079265498364,0.03802081934838522,0.1410613890697121,0.10960278078640179,0.29937755801001753,0.04588196364327037,0.026333136408262136,0.2510849646196065,0.03057663916529953
0.31964596956596525,0.09639390570509038,0.2168438769019088,0.10030951972799071,0.07661622713077912,0.03870626722663216,0.0772708826935255,0.038534478746806315,0.03800759247984163,0.14090207138299382,0.10781241155128411,0.2988136907389007,0.046192940956973065,0.026887431873330894,0.2546371128264671,0.030855530850942652
0.3133539493214,0.09537767368383317,0.21733965094136595,0.09980407033047141,0.07737582585830526,0.038828028374375975,0.07733332947285963,0.037931024393469744,0.03797937720715889,0.14082584918450422,0.10607062487845194,0.29823981254816756,0.04651664732484585,0.02748995952694936,0.25811973523991916,0.031133823558724707
0.3070394968478475,0.09437137241541205,0.21774271677333826,0.09930267943585964,0.07813537058692782,0.038966830170495355,0.07743484536400756,0.03731945412959197,0.03793661809775348,0.14083482585299906,0.10438035382958066,0.29765781096537497,0.04685427778872088,0.028141839849614648,0.2615286777078072,0.03141194740041303
0.3007110812984056,0.09337499291081369,0.21805340938531018,0.09880727361867189,0.07889419376058375,0.03912309595327452,0.07757661159214027,0.036700548419990736,0.03787971453021909,0.14093088923597938,0.10274440324127604,0.2970697508769321,0.04720703619877893,0.028844158320730683,0.26485948424258776,0.0316903838253394
0.2943770829636385,0.09238854272403373,0.21827204981678694,0.09831990564817757,0.07965158203135736,0.03929720375216642,0.07775969452493549,0.036075131782782544,0.03780903616380487,0.1411157131277357,0.10116546805654968,0.29647800576906147,0.04757615982576029,0.029597958975156075,0.2681075550009328,0.03196964368521533
0.2880457147817711,0.09141206190457697,0.21839877234531832,0.09784273786767142,0.08040682235335095,0.03948949725788831,0.07798504896592216,0.03544406967523547,0.03772495241265047,0.14139076002030762,0.09964614783489767,0.295885336393868,0.04796293897051254,0.030404237796479792,0.2712683215972848,0.03225024047907227
0.2817249380055713,0.09044563220902933,0.21843346266718003,0.09737801479521187,0.08115924316872962,0.03970029264870407,0.07825352106433567,0.03480826122175444,0.0376278609527536,0.14175728628803305,0.09818895541040447,0.29529491574145333,0.04836873079915951,0.031263940933984484,0.2743374126132476,0.03253266353696328
0.27542237587127294,0.08948937826588789,0.21837586262955747,0.09692802629722978,0.08190824858553296,0.03992988128564019,0.078565851381897,0.03416862841344753,0.03751820986817545,0.14221635035141902,0.0967963181840789,0.2947103027888267,0.04879496691083218,0.03217796991378852,0.2773108018854236,0.03281736429094135
0.2691452333680691,0.08854345964905536,0.21822577384463082,0.09649506296382775,0.08265334369674472,0.040178528619121266,0.07892267849417695,0.0335261025295337,0.0373965126635033,0.1427688236867749,0.09547057116808036,0.29413537046419547,0.04924315444877863,0.033147190670492765,0.2801849323609142,0.03310476618525263
0.262900244852885,0.08760805317195829,0.21798326298387485,0.09608136553132847,0.08339414954085515,0.040446469933164954,0.07932454331443319,0.032881608606830745,0.03726335580588348,0.14341540388716584,0.09421394158584134,0.29357419542646906,0.04971487087234703,0.03417244217506926,0.2829568088706192,0.03339529243606683
0.25669367467062065,0.08668332515707895,0.21764882730355808,0.0956890734421208,0.08413040664028677,0.04073390377323692,0.079771894130862,0.03223604881264767,0.03711939889998288,0.14415662841769417,0.09302852640550073,0.29303091855151725,0.05021175279615075,0.03525454257541319,0.2856240540963718,0.03368939869770284
0.25053136763305045,0.08576939394918505,0.2172235081199449,0.09532018775262965,0.08486196655507545,0.041040984045936264,0.08026509216337357,0.03159028660293785,0.03696536801512696,0.14499288731203275,0.09191627094919931,0.29250958548025485,0.05073547955565999,0.03639429187608152,0.2881849232873795,0.03398760397580153
0.2444188176724029,0.08486628783735643,0.2167089432965236,0.09497656768179974,0.0855887714323973,0.04136781183216851,0.08080441728967547,0.03094513639413901,0.03680204304944523,0.14592443287564436,0.0908789651678772,0.2920139790671492,0.05128775236065998,0.037592470404813026,0.29063827487607896,0.03429051791550324
0.23836122893518036,0.08397391669254611,0.2161073540748391,0.09465996194551468,0.08631082209458632,0.04171442791455855,0.081390073474023,0.03030136369123623,0.03663024030888064,0.14695138451561443,0.08991826662586207,0.29154747760505967,0.05187027003875354,0.038849832578914126,0.29298349598640183,0.0345988632460263
0.23236356217580376,0.08309207967443012,0.21542146643052082,0.09437205542925262,0.08702813576470032,0.042080806885458996,0.0820221933610511,0.029659694607962372,0.03645079168296484,0.1480737270982058,0.08903574012809654,0.2911130015916252,0.0524847024452821,0.040167095774194625,0.29522038382591215,0.034913492295054666
0.2264305661852202,0.08222051034170993,0.21465437214089614,0.09411451382329179,0.08774069505194311,0.04246685348280633,0.08270084147215127,0.029020828560201772,0.03626452190496437,0.14929130170373298,0.08823289944167921,0.2907130758805616,0.05313266332592168,0.041544925893615976,0.2973489859961368,0.03523539666637312
0.2205667946400978,0.08135893944813317,0.213809339453548,0.09388902056435738,0.0884483952148514,0.04287240151410265,0.08342601545978787,0.028385449479536563,0.03607222554313949,0.15060378824088538,0.08751124475440296,0.290349955087962,0.053815688160891176,0.04298392609572778,0.29936940472335877,0.0355657093968156
0.21477660939903434,0.08050715820701657,0.21288960230876944,0.09369730492708689,0.08915100978947374,0.04329721539825861,0.08419764493067812,0.027754234334824837,0.03587464762383069,0.15201068002294266,0.08687229363219263,0.290025749082112,0.05453522620732915,0.044484637283959044,0.3012815798688025,0.035905699166467304
0.20906417186809342,0.07966507529390802,0.21189820518889912,0.0935411604986081,0.08984819513549616,0.043740994011466965,0.08501558743554895,0.027127858930661948,0.03567247502430107,0.15351125101979488,0.0863176035087945,0.28974252726312333,0.05529264968305308,0.046047552109938106,0.30308510776254466,0.036256756420877854
0.20343342457429778,0.07883276444402648,0.21083799285408364,0.09342245368112877,0.09053953014213795,0.04420337620118025,0.08587962133421052,0.02650700106944704,0.03546634130637737,0.1551045212276022,0.08584878412679835,0.28950239975622555,0.05608927179958909,0.047673136409214216,0.3047791939538452,0.036620371567442966
0.19788806549238883,0.07801049981096966,0.20971174394769854,0.0933431222728979,0.09122456877915665,0.04468394706623255,0.08678943537207547,0.025892341264885068,0.035256837896508825,0.15678923572242573,0.08546749884853448,0.2893075740292876,0.056926364518542806,0.04936185210686189,0.30636277731422307,0.03699810572231337
0.19243151794442626,0.0771987767649476,0.20852235523330384,0.09330516455172085,0.0919028893588616,0.04518224392094481,0.08774461493933493,0.02528456127718816,0.035044523385771645,0.15856387146157921,0.08517545436222494,0.2891603856646334,0.057805173083464015,0.05111417899272351,0.3078347497558322,0.03739155480175505
0.18706689901939957,0.07639831650170878,0.2072729960677971,0.09331061960766614,0.0925741354633548,0.04569776078719235,0.08874462511806129,0.02468434080312952,0.03482992837713306,0.1604266671064598,0.08497437900123146,0.28906330220211124,0.05872692714244056,0.05293063393578733,0.30919418219188793,0.03780231101738287
0.18179699176981468,0.075610053671675,0.20596720608606156,0.09336153993067547,0.09323804694944883,0.04622995029943909,0.08978879140906737,0.024092352697174284,0.03461355604311954,0.1623756604636293,0.08486599062813029,0.2890188992779959,0.059692848425279624,0.05481178612071688,0.31044052326281196,0.038231935187695215
0.1766242313416602,0.0748351071731566,0.2046089311304837,0.09345995745068511,0.09389447996779465,0.04677822205960914,0.09087628287292748,0.02350925712347637,0.03439587880313321,0.1644087243592683,0.08485195574472874,0.28902980884623086,0.06070415506727471,0.056758266974591284,0.3115737628204832,0.03868195670857795
0.17155071203687736,0.074074735222821,0.203202497638778,0.0936078443563291,0.09454341547245008,0.047341936726167745,0.09200610680290136,0.02293569504355182,0.03417733172928403,0.16652359847911588,0.08493384602730338,0.2890986401621656,0.061762062773634545,0.0587707736108816,0.3125945536931639,0.03915390245731452
0.1665782080709972,0.07333027675143533,0.2017525307369558,0.09380707073585827,0.09518495621967706,0.047920395441743195,0.09317711938969574,0.02237228143230263,0.033958303463934386,0.16871791629941896,0.08511310923221864,0.2892278754313054,0.06286778309191772,0.06085006485057747,0.3135042870660998,0.03964933904840972
0.16170819334553313,0.07260308200057053,0.2002638256853808,0.09405936751629765,0.09581931273660214,0.048512826848587265,0.09438804655069799,0.02181959870040706,0.0337391270875959,0.17098922655441395,0.08539107196251577,0.2894197434874774,0.06402251910440272,0.06299694918467055,0.31430511881705986,0.04016991444877248
0.1569418516907441,0.07189444606654993,0.19874118567492174,0.0943663125131333,0.09644677916536994,0.049118379758053145,0.09563750730354711,0.02127819160433445,0.03352007627703294,0.17333500894487178,0.08576897138863765,0.28967609206786976,0.06522745887064807,0.06521226441147007,0.31499994624204863,0.04071739376978902
0.15228007738675298,0.071205579489268,0.19718925890715125,0.09472934877623264,0.09706770024442633,0.04973612954490441,0.09692403682330067,0.020748565858538442,0.03330136998108841,0.17575268395690244,0.0862479966886137,0.28999831586256897,0.06648376694633767,0.06749684910376809,0.3155923366899714,0.04129368727864542
0.14772347398317645,0.07053763781657514,0.19561244590975688,0.09514982210598957,0.09768243096494583,0.05036509696875715,0.09824610848507467,0.02023119110837779,0.03308318208147636,0.17823961671243505,0.08682932588647332,0.2903873890318496,0.0677925742820758,0.06985150651385544,0.3160864115941001,0.04190086895482626
0.14327236587892342,0.0698917879306312,0.19401492802463008,0.09562902024117362,0.09829129062808456,0.05100427214393682,0.09960215414890514,0.01972650596069069,0.03286565068498152,0.18079311471220533,0.08751415365732321,0.29084397905258885,0.06915496676920284,0.07227696568891322,0.3164866911477851,0.04254118433421295
0.13892683021106975,0.06926927672242862,0.19240077850369433,0.09616820716907615,0.09889451312251321,0.051652638700822436,0.10099058189675626,0.019234922564596222,0.03264888476745271,0.18341041917661272,0.08830370902596531,0.2913685806112969,0.07057197265292903,0.0747738546938318,0.3167979063405787,0.04321704692320702
0.13468674196031352,0.06867148840583452,0.19077407882003258,0.09676865125100234,0.09949220023018447,0.05230919597819354,0.10240979038937384,0.018756829979359787,0.03243296754026267,0.18608868947504376,0.08919926250348048,0.29196163341551434,0.07204454898016834,0.07734270188705898,0.31702478618799584,0.043931023106117156
0.1305518214602794,0.06809998806970495,0.1891390002072701,0.09743164594546332,0.10008429557036735,0.052972977642619976,0.10385817898344323,0.018292596362815914,0.03221795607104747,0.18882497991137004,0.09020212278704018,0.29262361309486995,0.07357356719441782,0.07998396355225039,0.31717183701445606,0.04468580617349958
0.1265216784911627,0.06755655001993982,0.18749984331301006,0.09815852205330239,0.10067059297446777,0.053643065260615186,0.10533415275016657,0.01784257006668931,0.03200387689191057,0.19161620796382886,0.09131362367100375,0.29335509041984864,0.07515979793641664,0.08269806202251519,0.31724316786724394,0.045484180816666366
0.12259584970371161,0.06704317032818621,0.1858610372405862,0.09895065061990407,0.1012507704176327,0.0543185955867282,0.10683612157854604,0.017407079770458477,0.031790717714029575,0.19445911302384633,0.09253510227651601,0.29415675595802365,0.07680389505974357,0.08548542228699295,0.31724244612753855,0.04632898010348959
0.11877382647931888,0.06656206384022709,0.1842271023759274,0.09980943592039633,0.1018244303735143,0.05499876066024974,0.10836249264246235,0.016986433821416982,0.031578418148714565,0.19735020479181398,0.09386787010266243,0.2950294093218959,0.07850638017324482,0.08834650286812377,0.31717300589965125,0.04722303814638455
0.11505507094091305,0.06611564665596065,0.18260258384966252,0.10073629832551792,0.10239113678864678,0.05568280020132784,0.109911655667771,0.01658091897367769,0.03136686709816263,0.20028570578169513,0.09531317872969584,0.2959739141770954,0.080267632354,0.09128181922684425,0.3170380338117742,0.04816914821795232
0.11143901864972683,0.06570650573668352,0.1809919641217439,0.1017326472875248,0.1029504468544377,0.0563699862351422,0.11148196065448428,0.01619079873182209,0.031155912351336006,0.20326150882425867,0.09687218224727522,0.29699112202589056,0.08208788779129385,0.09429195838494386,0.3168407523327799,0.049170044461081905
0.10792506749271413,0.06533735779873291,0.17939956432856816,0.10279984517348242,0.10350193728220095,0.0570596003180635,0.11307168798123053,0.015816311505104343,0.03094537885387916,0.20627317893431754,0.09854590003585811,0.2980817693352501,0.08396724848044336,0.09737758397356205,0.3165845735189239,0.05022841484382281
0.10451255330165048,0.06501100000172125,0.17782945544506543,0.10393916317316768,0.10404522500772641,0.05775090415904036,0.11467901112835377,0.015457668765622355,0.030735088974612662,0.20931600597971356,0.10033518826415458,0.299246353752462,0.08590569537251137,0.10053943147951724,0.3162732190281075,0.051346929712458675
0.10120071375235273,0.06473025513173535,0.17628541819362636,0.10515173598512001,0.10457998241248416,0.05844310682993213,0.1163019549679569,0.01511505345646184,0.03052488149106315,0.21238508663131217,0.10224072984214225,0.30048500404578676,0.08790310320176858,0.10377829401583126,0.31591080371798735,0.05252826681445388
0.09798864945765172,0.06449791614413847,0.1747709696054745,0.10643853415176736,0.10510594723268513,0.05913533925110851,0.11793836222982418,0.01478861908501428,0.03031462790735896,0.2154754143337529,0.1042630421053353,0.30179738456116567,0.08995925650373604,0.10709499943715924,0.3155018816848007,0.05377512612309528
0.09487530599671089,0.06431670348021938,0.17328942331130534,0.10780037126834202,0.1056229273283359,0.05982665092552952,0.11958588800942563,0.01447848989454578,0.03010424482938638,0.21858196855804507,0.10640249015631541,0.30318268438968715,0.09207386678386516,0.11049038000671578,0.3150514551429634,0.05509023413032776
0.09185949632739665,0.06418925421952372,0.1718439426070924,0.10923794002430996,0.10613080040933771,0.060516032096325514,0.1212420287335448,0.014184761901076325,0.02989370134597131,0.22169979878707743,0.10865929575691993,0.3046396939379515,0.09424659062211202,0.11396523606041283,0.3145649480233023,0.05647633819268219
0.0889399538410769,0.06411814631584203,0.17043757355456857,0.110751856930113,0.10662950868678389,0.06120244886043678,0.1229041710278147,0.013907504082556983,0.02968302068274796,0.22482409827240665,0.11103353931053407,0.30616691942817775,0.09647704824349206,0.11752029518361645,0.3140481475054342,0.05793619236368511
0.08611539225591017,0.06410593881726416,0.16907325970220194,0.11234270294962062,0.10711904826820919,0.06188487877152888,0.12456964438928532,0.01364675923031624,0.029472275778716122,0.2279502624577107,0.11352515567053753,0.3077626916909685,0.09876484175240482,0.12115616831437245,0.3135071178227881,0.05947253684207382
0.08338455922735186,0.06415520929694346,0.16775384148183992,0.11401105611464711,0.10759945298329564,0.0625623424531882,0.12623577147362983,0.01340254440664198,0.0292615788502257,0.2310739271305447,0.11613392505488722,0.3094252552417843,0.10110957184033975,0.12487330447901318,0.3129480915227902,0.0610880736406154
0.08074628007288022,0.06426858259079098,0.16648204423485813,0.1157575144996483,0.10807077224643387,0.0632339299837035,0.12789991383796293,0.013174851108356167,0.029051065418087784,0.23419098186084777,0.11885946073723387,0.31115283493882256,0.10351085137399892,0.1286719511039697,0.3123773438850104,0.0627854412882754
0.0781994901326096,0.0644487503694905,0.16526045910006049,0.11758270844249759,0.10853304256127115,0.06389882102221833,0.12955951092833487,0.012963645245927835,0.028840873648088895,0.23729755511401424,0.12170119538085546,0.31294367852967386,0.10596831391471408,0.13255213499441174,0.3118010563784705,0.06456719129694849
0.07574325509800225,0.06469848149052669,0.1640915206938063,0.11948730144465756,0.10898625236517241,0.06455629786017704,0.13121211012596584,0.012768867050059866,0.028631122344136027,0.24038996857018372,0.12465836786564112,0.31479607433799894,0.10848161498498299,0.13651367228238784,0.31122517488814966,0.06643576875872682
0.0733767794011328,0.06502062345807286,0.16297748475746318,0.12147197972935914,0.10943030010169384,0.06520575079601769,0.1328553857870891,0.012590431043774376,0.028421896738556912,0.24346465960083527,0.1277300122397582,0.31670834418133853,0.11105042386130104,0.14055619710275633,0.31065527062021714,0.06839349882563568
0.07109940340459954,0.06541809565172986,0.16192040792676304,0.12353743094158649,0.10986494930232084,0.06584667544489053,0.1344871454454757,0.012428226226722574,0.028213251313269832,0.24651807248854216,0.1309149500430782,0.3186788123220416,0.11367440389792638,0.14467919521530836,0.3100964284524607,0.07044258002458399
0.06891059062706979,0.06589387525965867,0.1609221306982669,0.12568431290828627,0.11028979637486985,0.06647866181195601,0.13610532170717274,0.012282116485708703,0.028005227891520514,0.2495465207442543,0.13421178675832188,0.3207057518265591,0.11635317990685541,0.14888203802080596,0.30955320688332233,0.07258508446458349
0.06680990656488175,0.06645097706154608,0.15998426370457758,0.1279132137211657,0.11070427253799621,0.06710137518131876,0.1377079488584992,0.012151941081139789,0.02779787885843778,0.2525460440955054,0.13761891262077058,0.3227873101541424,0.11908629192497765,0.1531640164637872,0.3090296846901462,0.07482296410597089
0.06479699083094824,0.06709242834948398,0.15910817666932078,0.1302246046494344,0.11110768353772128,0.06771452910551592,0.13929312382417072,0.012037515094867751,0.027591288136147512,0.2555123291683588,0.14113450753024412,0.3249214161430583,0.12187314155841864,0.1575243737315326,0.3085295527352771,0.07715806149055485
0.06287152435045613,0.06782124035076528,0.15829498892569926,0.13261878955078543,0.11149926965183629,0.06831785102378529,0.1408589518309607,0.01193862986501469,0.0273855875864879,0.2584407540074668,0.1447565494152134,0.3271056708539404,0.12471295434873712,0.16196233500613139,0.30805620445632975,0.07959212277327116
0.06103319326218862,0.06864037752904165,0.1575455601198273,0.135095863357388,0.11187826934760912,0.06891104129105992,0.14240347791512192,0.011855053493199357,0.02718096817382462,0.26132653169290243,0.14848282512382985,0.32933723199844805,0.12760478594717725,0.16647713192180755,0.3076128104978358,0.08212681061886519
0.059281651013912855,0.06955272609464062,0.15686047962677435,0.13765569966167548,0.1122439802344812,0.06949373126956487,0.1439246106498429,0.01178653150941866,0.026977685563138426,0.2641648837400699,0.1523109427519262,0.3316127265312926,0.13054757289709745,0.17106801894604334,0.3072023772229475,0.08476371456159335
0.057616483693313236,0.070561066070344,0.15624005382173295,0.14029797378692746,0.1125958145596801,0.07006545777254278,0.14542006191190654,0.011732787766821656,0.026776060169071463,0.26695120274613404,0.15623834422929064,0.33392824035654206,0.1335402037112648,0.17573427875008912,0.3068277892454681,0.08750435675842584
0.056037191874401454,0.07166805696741597,0.1556842947311465,0.14302220525405993,0.11293334639984295,0.07062567097962583,0.14688733813621735,0.011693525613907012,0.026576471986086484,0.2696811911250913,0.16026231692813597,0.336279394999567,0.13658158957453537,0.18047521383822146,0.3064918364550053,0.0903501916411603
0.05454319981876932,0.07287624258707093,0.15519292018061312,0.1458278019377557,0.11325634776397063,0.07117377191247153,0.14832379232781523,0.011668429357521813,0.026379350799262388,0.2723509683991503,0.16438000299493422,0.3386614695996801,0.13967072616169768,0.18529012229288097,0.3061972263138065,0.09330259870103272
0.053133885515783894,0.07418806665121301,0.15476537278551467,0.14871409965157228,0.113564811061197,0.07170916113979023,0.1497267082697648,0.01165716598965501,0.02618516258570743,0.2749571412051512,0.16858840502402594,0.3410695269429161,0.1428067422410265,0.1901782564338754,0.3059465825180398,0.09636286841243612
0.05180861631548025,0.07560588802150821,0.15440085398262868,0.15168039577357248,0.11385895581080895,0.07223128616376309,0.1510933868853611,0.011659387108382558,0.025994393059778246,0.2774968322626929,0.17288438660174196,0.3434985284515978,0.14598893151293307,0.19513876439444539,0.3057424314577502,0.09953218201114966
0.05056678175632632,0.07713199155810717,0.15409836564715368,0.15472597560527832,0.1141392180794281,0.07273968321270506,0.15242122348149073,0.01167473092280412,0.025807529388437084,0.27996766685396063,0.1772646661908839,0.34594343318055604,0.1492167651409733,0.20017061594624086,0.3055871782749846,0.10281158639654361
0.04940782173724914,0.0787685944496835,0.1538567556273455,0.15785013025614117,0.11440622190402608,0.07323401126134407,0.15370777244056766,0.011702824197646264,0.02562504154937998,0.2823677176826777,0.18172580284901,0.3483992760943095,0.1524898835423374,0.2052725213463334,0.305483074682263,0.10620196684354893
0.04833124951196936,0.08051784809289197,0.1536747649971351,0.16105216497817892,0.11466073286534571,0.0737140762951312,0.15495079642824744,0.011743283968927994,0.025447367280345284,0.2846954111141301,0.18626417242887341,0.35086122139731185,0.15580806709774642,0.21044287095597589,0.3054321810189649,0.10970402411770584
0.047336669074573734,0.08238183576056708,0.15355107402303775,0.1643313970545479,0.11490359496264659,0.07417984417203118,0.156148297778049,0.011795718850087967,0.025274907016180667,0.2869493995795536,0.1908759332243678,0.35332458744290113,0.15917118642941736,0.2156797285488615,0.3054363252346261,0.113318264338374
0.046423786626702636,0.08436256642823212,0.15348434322030863,0.16768714258054135,0.11513565293977977,0.07463144090930958,0.15729853036612984,0.011859729749329704,0.025108030694836428,0.289128406232494,0.19555698050080375,0.3557848407122164,0.16257913373876096,0.22098087902906188,0.3054970615341233,0.11704500253841042
0.045592415969633385,0.08646196522456084,0.15347324554656475,0.17111869176814026,0.11535766973213853,0.07506913981517549,0.15839999097320775,0.01193490983346893,0.02494709033506343,0.2912310487098396,0.2003028966953979,0.35823755747322755,0.16603173739507107,0.22634389946450975,0.3056156312438213,0.1208843718167188
0.04484247784331792,0.08868186103254498,0.1535164858286321,0.17462527275094955,0.11557026861430016,0.07549333556358878,0.15945138982959398,0.012020843600143894,0.024792431784443254,0.2932556616081025,0.2051089207717704,0.36067835293808487,0.16952866833119376,0.23176622715672682,0.3057929280212914,0.12483633053557898
0.04417399342857908,0.09102397179574301,0.1536128039706021,0.17820600425389588,0.11577393470339847,0.07590450603139733,0.16045160074538822,0.012117104957278326,0.024644403569369453,0.2952001734824519,0.20996995975946944,0.36310277897218135,0.173069367445738,0.2372452160002698,0.30602946882647236,0.1289006652161613
0.043587072425061,0.09348988808155242,0.15376095932345737,0.1818598379051467,0.11596907547468398,0.07630316342846805,0.16139959193753442,0.01222325425449621,0.024503362834780183,0.2970621026006422,0.21488063783401726,0.3655061926146727,0.1766530348250241,0.24277817894661854,0.3063253711322599,0.13307698891645384
0.043081896302589295,0.09608105542605118,0.15395969473720836,0.18558549283957376,0.11615610571843375,0.07668979689857809,0.16229433937497745,0.012338834662383131,0.024369678513863777,0.29883866925654523,0.21983536137262896,0.3678835987997031,0.18027868904158129,0.2483624153421198,0.3066803357544005,0.13736473506726124
0.04265869748479092,0.0987987561062492,0.15420768016355163,0.1893813967163894,0.11633552787361846,0.07706481728470492,0.16313472516432292,0.012463369558928315,0.02424373199274064,0.30052695923213196,0.22482838615983813,0.37022949424018115,0.1839452621305793,0.25399522269698444,0.3070936335388675,0.14176314689845787
0.0423177353508621,0.10164409268374534,0.15450344070340427,0.193245662610526,0.11650799772679878,0.07742853092306592,0.16391943951631474,0.012596363121173368,0.024125915627511423,0.3021240857215209,0.22985388152591402,0.37253778878764554,0.18765169577112148,0.25967389296226706,0.3075640930984772,0.14627126274212077
0.04205927002711366,0.10461797816887349,0.1548452932309155,0.1971761175220877,0.11667437244519278,0.0777811603195408,0.1646469363948775,0.012737304517439619,0.02401662952880126,0.3036273339919554,0.23490598771670523,0.37480186507654056,0.1913970254134988,0.26539569360655524,0.30809008598491966,0.1508878976838624
0.04188353498056935,0.1077211351565358,0.15523133488926474,0.20117036321966214,0.1168357389295533,0.0781228948434741,0.16531547789309228,0.012885674082515848,0.023916277052208064,0.3050342853166897,0.23997886283236183,0.3770147421541735,0.1951804474167841,0.27115783372515173,0.3086695052508584,0.1556116222689807
0.04179071230273269,0.11095410007285121,0.15565950249242166,0.20522584280950742,0.11699342159833352,0.07845394406986447,0.16592323824257788,0.013040949930519928,0.023825259424259986,0.30634291679163306,0.2450667159133314,0.37916926878840834,0.19900136464871157,0.2769574151752564,0.3092997334006187,0.16044073925692656
0.0417809202950433,0.11431722763563558,0.15612767341456027,0.20933990265188532,0.11714896987014818,0.07877458226907545,0.16646841816233796,0.013202614341620903,0.023743969896819046,0.3075516736531116,0.25016382320696817,0.38125830945693606,0.20285940671050212,0.2827913684475162,0.30997760428895416,0.165373260094115
0.04185421961397267,0.11781069388141364,0.15663377005420068,0.21350984707266182,0.11730412671886442,0.07908518180311115,0.16694934850422097,0.013370159548246217,0.023672787763904427,0.3086595107745921,0.2552645253178106,0.38327491290651583,0.20675442198705787,0.28865637281133527,0.3106993846016377,0.17040688419914385
0.042010631307951865,0.1214344976478234,0.1571758510896352,0.21773298348373546,0.11746078066341269,0.07938623420273389,0.1673645779469725,0.013543092535598789,0.02361207250019973,0.3096659002722081,0.2603632038053746,0.38521245604255056,0.21068644005771087,0.29454876035310784,0.3114608038874573,0.17553898394737744
0.04225015600045057,0.12518846043177215,0.15775218261794063,0.22200665576288325,0.11762090436133012,0.07967835846140461,0.16771294031767459,0.013720938484170473,0.02356215819746433,0.31057080271598575,0.26545423678549446,0.3870647560309346,0.21465560457278623,0.3004644182522852,0.3122571327381675,0.1807665939169292
0.042572789650417935,0.12907222456946518,0.15836128292475987,0.2263282640313979,0.11778648355293526,0.079962296834955,0.16799359783855336,0.013903242520685864,0.023523348391796997,0.3113746004129193,0.27053193411915005,0.38882614378204117,0.21866207841840077,0.3063987362777926,0.31308328765728877,0.1860864011527705
0.042978535287261976,0.13308524970331567,0.15900193579406854,0.23069526928818243,0.11795944041900709,0.08023889911683167,0.1682060575688064,0.014089569508696873,0.02349591129938073,0.31207799262852504,0.2755904537208746,0.39049149250659915,0.2227059247473501,0.3123466404685333,0.31393394698087324,0.19149473960784727
0.04346741063112197,0.1372268075107423,0.15967316892354216,0.23510518170077363,0.11814156208498447,0.08050909691273905,0.16835015950024496,0.014279501698775435,0.023480075462478257,0.312681854400163,0.2806237012783516,0.39205619587303125,0.22678697984428461,0.3183026960003577,0.31480367035475565,0.19698759580269934
0.04403945167679464,0.14149597466865677,0.1603741961096785,0.23955553171560176,0.11833445915577064,0.0807738698268585,0.1684260361150082,0.014472634166610397,0.023476026288474762,0.3131870626440261,0.2856252217009064,0.3935160915536712,0.2309047642673738,0.32426123417139463,0.3156870152782014,0.20256062748156115
0.04469471247286409,0.14589162401319633,0.1611043243113878,0.2440438235388973,0.1185395729314714,0.08103420567792023,0.16843404464675565,0.014668568088921164,0.02348390476551326,0.3135942972456753,0.2905881124873195,0.39486732771075905,0.23505848263716433,0.3302164780818997,0.31657864387326007,0.20820919245530992
0.04543326145989457,0.15041241382638157,0.1618628313209162,0.2485674709688238,0.11875821739057339,0.08129105689440858,0.16837467471278378,0.014866902033821395,0.02350380903215251,0.3139038578981847,0.29550500516373085,0.39610617229325784,0.23924710672869565,0.3361626568705167,0.3174734131764049,0.2139283847401708
0.04625517483774279,0.15505677514114882,0.16264884632271587,0.25312371604251993,0.11899162691691804,0.08154529595031408,0.16824843530606792,0.015067222385794889,0.023535797740546704,0.3141155905223751,0.3003681287205302,0.39722876788069145,0.24346948831207468,0.3420940997173045,0.3183664428124471,0.2197130748430676
0.047160527508390615,0.15982289690692758,0.1634613051694396,0.25770953150889464,0.11924099444555396,0.08179767843364778,0.16805573259294088,0.015269096527201195,0.02357989385662775,0.31422897779895326,0.3051694203486539,0.3982308755412744,0.24772445931138734,0.34800530097266585,0.3192531548138709,0.2255579499164387
0.0481493821850833,0.16470870880476085,0.16429902229836668,0.2623215220360422,0.11950749737879011,0.0820488293414947,0.16779677483016456,0.015472073121508197,0.023636088463896587,0.31424332949316125,0.30990064674535656,0.39910773903123553,0.25201090430217143,0.3538909487518921,0.3201292814962566,0.23145754864142049
0.049221777270563136,0.16971186145061104,0.1651608327590832,0.2669558695142836,0.11979231159092835,0.08229925876135813,0.16747155635241412,0.01567568966078677,0.023704344544870415,0.3141579800935947,0.31455352374752305,0.39985418461515665,0.2563278001247544,0.3597459110983514,0.3209908385982984,0.23740628524361318
0.050377714088045256,0.17482970393361796,0.16604573472691192,0.27160836184081144,0.1200966144568793,0.08254939353018176,0.16707993154225062,0.015879483265812833,0.023784600679157598,0.3139724579964878,0.31911983174180625,0.40046490995529904,0.26067421947572783,0.36556517620268025,0.3218340622591044,0.2433984571064392
0.05161714400100021,0.18005926169256437,0.1669530018000803,0.2762744888393217,0.12042157831880279,0.08279960915036988,0.16662173236001496,0.016083001292123915,0.02387677456655949,0.31368661977007384,0.3235915237295696,0.4009348300147523,0.26504929768936053,0.3713437459266395,0.3226553097706826,0.24942823106929507
0.052939955885730104,0.1853972231346199,0.16788225526216505,0.2809495612935869,0.12076835613164545,0.08305025680314664,0.16609688239937903,0.01628581050147996,0.023980766259137108,0.31330074526435847,0.327960822103177,0.4012594011514312,0.2694521643676765,0.3770764847397518,0.3234509253694565,0.2554896046561069
0.05434596432905469,0.19083994131249013,0.16883348910081034,0.28562882862253336,0.12113806120412879,0.08330168511314849,0.16550549080430216,0.01648750435270088,0.024096460968877086,0.3128155916463168,0.33222029922423524,0.4014348946335129,0.2738818439052654,0.382757931194242,0.3242170736031338,0.2615763400815827
0.05583489881773026,0.19638344744181596,0.16980704395570823,0.2903075873408445,0.12153174299223123,0.08355425643657406,0.1648479222663998,0.01668770806243458,0.024223731307987075,0.312232406619291,0.3363629359465272,0.40145860035096986,0.27833713114641156,0.3883821155642717,0.3249495651013534,0.2676818757364884
0.0574063940724664,0.20202347002152612,0.17080353008862992,0.29498127469360286,0.12195036083338329,0.08380835754284552,0.16412484056584223,0.016886081198502368,0.02436243881705428,0.31155290295761395,0.3403821514961219,0.4013289446021001,0.2828164627255204,0.3939424861630361,0.32564375304367227,0.27379924542173006
0.059059981563730955,0.2077554571515858,0.171823703619427,0.29964554186791326,0.12239475736044401,0.08406440464671351,0.1633372244400038,0.017082317688057683,0.024512434642139428,0.31077919794551034,0.344271797817955,0.4010455105348192,0.28731783441708825,0.39943200881345564,0.32629457930277006,0.2799210611281724
0.06079508215623609,0.21357460143743,0.17286831165842456,0.3042963014944849,0.12286563313057196,0.08432284282890268,0.1624863558899893,0.017276143241869452,0.024673559235121885,0.30991372231178455,0.34802611181276755,0.40060895586065726,0.29183880706862486,0.4048433790446321,0.3268967556915673,0.2860395861387945
0.06261099994545864,0.21947586646795478,0.1739379582913742,0.30892974478684604,0.12336352376294187,0.084584139959178,0.16157378229759758,0.017467310307153365,0.02484564097216887,0.3089591038196137,0.35163961996475407,0.40002082939709804,0.2963765801762878,0.41016925257821774,0.3274450009164478,0.29214686538193774
0.0645069175758843,0.22545401340329796,0.17503307226298526,0.3135423246330493,0.12388878060939469,0.08484877530500508,0.16060125486429425,0.017655590758406357,0.025028493613140784,0.30791803087569636,0.35510699176947186,0.3992832952481004,0.30092807470940197,0.41540245427268185,0.32793427849125706,0.2982348681573836
0.06648189300237164,0.2315036257432133,0.17615400152602592,0.3181307022363683,0.12444155568490478,0.08511722307221152,0.1595706468520779,0.017840766614550908,0.025221912560043944,0.30679310146810984,0.3584228410884271,0.39839878033220105,0.30548998753201595,0.4205361534907729,0.32836001628256184,0.304295622679498
0.06853485705619493,0.2376191299099885,0.17730116772750124,0.3226916564516884,0.1250217912578225,0.08538993118496548,0.15848385587142003,0.018022619129552112,0.025425669914797992,0.3055866625369318,0.36158150030202735,0.39736959563757634,0.31005880522772744,0.42556399416112656,0.3287182965356809,0.31032133306425796
0.07066461135624266,0.24379480892096742,0.17847520446691464,0.32722195671051324,0.12562921414054418,0.08566729567773972,0.1573426950055212,0.01820091695699669,0.02563950838428242,0.3043006611782454,0.364576861566956,0.39619766802927153,0.31463077335565337,0.4304801685551932,0.329006005135531,0.3163044695847612
0.07286982670848101,0.25002480619523654,0.1796770487409148,0.33171820227490806,0.12626333433031,0.08594963114967161,0.1561487923604938,0.018375406081146572,0.02586313423777753,0.30293656509623523,0.36740240331599266,0.3948845353000657,0.3192018208638251,0.4352794252194879,0.32922092943474135,0.32223782378224136
0.0751490423395604,0.256303116483259,0.1809079774997309,0.336176647119345,0.12692344723532886,0.08623713943211295,0.15490354662205708,0.018545806534426376,0.026096210790364845,0.3014953977159567,0.37005141241910633,0.3934315944347382,0.3237674554344068,0.43995700384171943,0.32936179537405186,0.3281145213836659
0.07750066624361095,0.26262356106494755,0.18216958606741668,0.3405930748966385,0.12760863830224267,0.08652988515534801,0.1536081677828761,0.0187118181203798,0.02633835586027319,0.2999778587545059,0.37251730060635424,0.39184044014689107,0.3283226835606864,0.4445084932732098,0.32942823690127293,0.3339279879415673
0.07992297682833147,0.2689797447565543,0.1834637103811864,0.344962802800609,0.12831778846845945,0.08682779184145362,0.1522637695514098,0.018873131374401414,0.026589145290592503,0.2983844668540133,0.3747939238790251,0.39011316083508635,0.33286201977954566,0.44892961349468824,0.3294206938448737,0.33967186461714066
0.08241412593126142,0.2753649929107049,0.18479230003484232,0.3492808189117221,0.1290495785395936,0.08713066248062275,0.15087146421227435,0.019029439083103197,0.026848120425241914,0.29671569116211555,0.3768758676317506,0.38825255004513803,0.33737958854828815,0.45321592776601294,0.32934023828667564,0.345339874443217
0.08497214314502972,0.2817722692525406,0.1861572613794588,0.3535419817697172,0.1298024903858637,0.08743821357959354,0.1494324412805404,0.019180446643306953,0.027114796380320317,0.2949720646238978,0.37875867935403507,0.3862622267351437,0.34186926053366584,0.45736254338530524,0.32918833387039254,0.3509256425287534
0.08759494124804865,0.288194094472838,0.18756032495878133,0.3577412200612597,0.13057480280562642,0.08775011080072212,0.14794802729605702,0.019325880903086793,0.02738866985281317,0.2931542764494384,0.38043903298497483,0.38414666499500494,0.3463247696172083,0.46136396160292087,0.32896653706016354,0.35642249071363497
0.0902803223920301,0.29462251547066104,0.1890030140456458,0.36187370966630306,0.13136458005082483,0.08806600170867117,0.14641972511117898,0.0194654971538143,0.027669226157690442,0.2912632417954022,0.3819148123730369,0.38191114066998905,0.350739786104688,0.46521419907773653,0.32867619656652625,0.36182327766968625
0.09302598455773077,0.3010491591118443,0.1904867322184215,0.3659350191840466,0.13216965565156819,0.08838554416058196,0.14484923200272906,0.01959908397832288,0.02795594519969533,0.2893001472981361,0.3831851055942841,0.37956160793889293,0.35510793422788456,0.4689071013903643,0.32831830076670654,0.367120382309841
0.09582952766337291,0.30746534648643165,0.1920129023799184,0.36992121617221946,0.13298762527082242,0.08870842889211292,0.14323843690184945,0.019726465709085147,0.02824830611400419,0.2872664716844805,0.38425010681216715,0.3771045228106835,0.3594227467988235,0.47243668780576487,0.3278935867800501,0.37230584963829394
0.09868845860377601,0.3138622258452069,0.1935830860826346,0.37382892780139704,0.13381586379723703,0.08903439496268066,0.14158939793485273,0.019847502313871265,0.02854579034879987,0.2851639812432788,0.38511092760498905,0.37454663244118175,0.3636775554964302,0.4757974461447659,0.3274028347678023,0.37737161719549744
0.10160019441932089,0.3202309049916034,0.19519905706586999,0.3776553513827762,0.13465156665819508,0.08936323693537554,0.13990430226344486,0.01996208660553411,0.028847883010416152,0.28299470046278086,0.38576932492406807,0.37189474908485576,0.36786533285633205,0.4789845539516715,0.32684719256576866,0.38230974085378405
0.10456206274876371,0.3265625751924622,0.19686282432627453,0.38139821220785,0.13549180498969704,0.0896948029761612,0.13818541087344474,0.02007013876640863,0.029154072345374496,0.2807608586419119,0.38622735776292844,0.3691555255827211,0.3719785537374074,0.48199401254091007,0.3262284515525074,0.387112589621414
0.10757129871433253,0.33284861803026516,0.19857660447597913,0.38505566828034693,0.1363335871499938,0.0900289834481064,0.13643499146775154,0.02017159828342845,0.029463847290244077,0.2784648137915278,0.386487013919303,0.3663352459547201,0.37600918228871805,0.48482268711455906,0.3255492517078737,0.39177300015643807
0.11062503742664763,0.33908068643343153,0.20034274739080746,0.3886261637643223,0.13717392231254036,0.09036569002527081,0.13465524296136747,0.020266413502598446,0.02977669307663024,0.2761089556788882,0.3865499326195888,0.36343965477323104,0.37994882124831536,0.4874682528612664,0.32481320454269097,0.3962843841154274
0.11372030138542585,0.3452507514693461,0.20216362284747844,0.3921082352492704,0.13800988166774797,0.09070482582654846,0.13284822069566712,0.020354529124368678,0.03009208493204481,0.2736955904469178,0.3864173838444074,0.36047387148801213,0.3837889493846405,0.48992905306629825,0.3240249283390864,0.40064078397893776
0.11685398219344677,0.35135110741966025,0.2040414829039915,0.3955002771567121,0.13883865214042956,0.09104624753811681,0.13101578671661548,0.020435873012289173,0.030409479966289673,0.2712268098546724,0.3860905199988737,0.3574424112201085,0.3875211599506188,0.4922038802416273,0.3231899963417056,0.40483687535380725
0.12002281619828438,0.3573743291961606,0.20597833999367104,0.3988002988782861,0.1396575772573865,0.09138972185227692,0.1291596114268675,0.020510346704761134,0.030728307376946595,0.26870436349909366,0.3855707474975629,0.3543492668139824,0.39113736205034055,0.4942916948049179,0.3223148046251822,0.40886791578405424
0.12322335556994785,0.36331317827223264,0.20797592448240385,0.4020057695448371,0.14046417996463234,0.09173488650217099,0.12728122293168714,0.020577825124272992,0.031047957438457726,0.26612958739736925,0.384860077252439,0.3511979945693193,0.39462992966812094,0.49619129781019994,0.32140637179524906,0.41272964174319143
0.1264519433730116,0.36916045592644325,0.21003574403109246,0.40511364798502597,0.1412561628505964,0.09208123676892759,0.1253820739197396,0.02063816584826158,0.03136777180850022,0.26350343724587383,0.38396140373070303,0.34799178586137874,0.39799178649418965,0.497901006315488,0.3204720869975964,0.4164181167655187
0.12970470725808678,0.37490880560050577,0.21215919209011952,0.40812057953138214,0.14203138238872562,0.0924281481688622,0.12346360276221775,0.02069122273251155,0.031687040388143996,0.260826607585621,0.3828786986231215,0.3447335290805285,0.40121641860602153,0.4994184549926564,0.3195194255662233,0.4199295347094943
0.13297757782945793,0.38055049617321646,0.21434764468875123,0.4110231553146962,0.1427877954243532,0.09277492074562961,0.12152728197834199,0.020736859257272002,0.03200500752274504,0.25809967866000066,0.38161711025707906,0.34142586743672443,0.4042978112386389,0.5007406362978617,0.3185556699974948,0.4232599830754915
0.13626632260364235,0.3860772875478954,0.2166025239449364,0.41381815954428075,0.14352337809407997,0.09312082533386097,0.11957465288492503,0.02077495998559586,0.03232088420618917,0.2553232549848068,0.3801829655978789,0.33807125670822485,0.4072303100680985,0.5018641394290929,0.31758771912472333,0.42640518788982656
0.1395665843024508,0.39148048148691605,0.21892532596290196,0.41650278066701457,0.14423602708555272,0.09346514420335633,0.11760734586398802,0.020805439648093168,0.032633861707253194,0.2524980848109804,0.3785836776290215,0.3346720251554171,0.4100084114704753,0.5027854531474939,0.3166220652141665,0.4293603190693703
0.14287391851922587,0.39675114013708074,0.22131761356640817,0.4190747771670023,0.14492348170358582,0.09380720441764082,0.11562708628694895,0.02082824946872738,0.03294312485302975,0.2496251554284221,0.37682756666548783,0.33123043583894085,0.4126264899856352,0.5035012469859306,0.3156649146148739,0.4321199708228923
0.14618382833894442,0.40188036922980575,0.22378097667767993,0.4215325907881062,0.14558332183725495,0.0941464025942056,0.11363568670688606,0.020843380463813944,0.03324786451121861,0.2467057599806713,0.37492360929816165,0.3277487497020727,0.4150785179000565,0.5040086079430863,0.314722345221231,0.43467834361836005
0.14949179324776168,0.40685959243301156,0.22631696496447182,0.4238754022925566,0.14621305479105803,0.09448222015668278,0.11163502645566643,0.02085086357547691,0.03354728877257283,0.24374153249032818,0.3728811327831758,0.32422928616763447,0.41735792636279534,0.5043052254973732,0.31380042464651814,0.43702953325310895
0.15279328953624774,0.4116807887896484,0.22892699859759666,0.4261031273835768,0.14681024685525682,0.09481422859488269,0.10962702024655442,0.020850766635809485,0.03384063230465353,0.2407344491170841,0.3707094754399082,0.32067447676755717,0.41945772424503047,0.5043895187020233,0.31290527217047137,0.43916783029959244
0.15608379941329475,0.416336677349,0.23161226362417964,0.4282163529815155,0.1473726534307963,0.09514208467067012,0.107613577772057,0.020843188293137232,0.03412716333509469,0.23768679523081282,0.3684176693780151,0.3170869065293842,0.42137080517633385,0.5042607000230958,0.31204306892714667,0.4410879929535787
0.15935880623199622,0.4208208352825059,0.23437361185434863,0.4302162165103807,0.1478983285336148,0.09546551590230343,0.10559655658729002,0.020828249161329776,0.034406187733623625,0.2346010995889493,0.3660142711546113,0.313469337520004,0.4230902963763912,0.5039187716612185,0.31122002468721693,0.44278547973504984
0.1626137736070716,0.42512773899583467,0.23721151049943404,0.43210423309081725,0.14838570609317203,0.09578429700754366,0.10357771088764507,0.020806080571198118,0.03467704970286485,0.2314800386365127,0.36350742325869373,0.3098247091135883,0.42460987475425094,0.503364451559703,0.3104423123979624,0.4442566289083052
0.16584410679000816,0.4292527218267521,0.24012606950530568,0.4338820774330707,0.1488336471928945,0.09609821827186499,0.10155864574683493,0.02077681140375793,0.034939128662216046,0.2283263155602845,0.3609050644411468,0.3061561102296802,0.4259240270221279,0.5025990283090038,0.3097159831732908,0.445498772795409
0.16904509546644936,0.4331918465974268,0.2431171158138625,0.43555132870020563,0.1492414495530474,0.09640704702282178,0.09954079879668715,0.02074055431324491,0.03519183201800023,0.22514252009415545,0.35821514838765556,0.30246671999962715,0.4270282374646361,0.5016241467932189,0.3090468745991508,0.4465102774174782
0.17221184282959562,0.43694169625302615,0.24618426767025187,0.43711320082323246,0.14960881795821168,0.09671048353100457,0.0975254617611331,0.020697395359971088,0.03543458365518709,0.22193099281723547,0.3554458064108074,0.2987597150696762,0.42791909018930574,0.5004415296601591,0.30844052409161365,0.44729050107989377
0.17533920588886606,0.440499090714471,0.249326989897222,0.4385683330566737,0.14993579681236244,0.09700811558019976,0.09551382512544608,0.020647392529226184,0.03566680815744002,0.21869375418703685,0.3526054455425145,0.2950381439990059,0.4285942768609156,0.4990526463398791,0.30790209679767755,0.44783966948642095
0.17842178841714523,0.4438607440342344,0.2525446267549368,0.4399167517846501,0.1502226684063481,0.09729938539628673,0.09350702280937356,0.02059058396507248,0.03588791095746298,0.2154325446298049,0.34970278412857253,0.2913047801219063,0.4290525059422715,0.49745840124078433,0.30743633445694696,0.4481586694887661
0.18145400234141262,0.44702293421556866,0.25583641082721836,0.4411580307862862,0.15046982266054407,0.09758358705569187,0.0915061684976721,0.020527000789489738,0.0360972578745021,0.2121489449502221,0.34674683077184454,0.2875620019355249,0.42929331508718943,0.49565901205935675,0.30704752812434766,0.44824876833257643
0.1844301698211491,0.4499813604545164,0.2592014479606564,0.4422915547566167,0.1506776148861331,0.09785989672247057,0.08951238280534045,0.02045667958845621,0.03629416451368869,0.20884451192706535,0.34374681537950785,0.2838117801797631,0.42931679421854996,0.4936541824596188,0.30673951411022193,0.44811126987371414
0.18734463226551815,0.452731298094305,0.26263867981412753,0.44331678779287664,0.1508462587234082,0.09812741935754993,0.08752681092725728,0.020379672912709604,0.036477904597965446,0.20552089487537933,0.34071208304004746,0.28005579697509253,0.4291232325497855,0.4914434574921125,0.3065156893340748,0.4477471613989476
0.19019185069724903,0.45526794014386973,0.2661468268400454,0.4442335124281308,0.15097581377555605,0.09838523686320533,0.08555063087147616,0.020296057464737446,0.03664773344175833,0.20217992499791243,0.33765196247304446,0.27629563366951865,0.42871273982685043,0.48902659380769836,0.30637903985571796,0.44715689923707697
0.19296648947456937,0.45758675466118454,0.2697243153663015,0.44504203091419253,0.1510662729029828,0.09863245272252326,0.08358505277984586,0.02020593975286219,0.036802916349825875,0.1988236746396565,0.3345756209196427,0.27253295524765264,0.4280849849131427,0.4864038753664097,0.306332174872738,0.44634047134234367
0.19566347534676498,0.4596837891307261,0.27336919474780796,0.4457433210817932,0.15111769102658973,0.09886823186151633,0.08163131018243898,0.020109459105833068,0.036942756150568426,0.19545448515035274,0.33149191668955663,0.26876966170076505,0.4272392103364032,0.4835763571697186,0.30637735804364846,0.4452976927322554
0.19827802440163336,0.46155590675045205,0.27707906383241776,0.4463391399527698,0.15113030197726673,0.09909183439557291,0.07969064430323985,0.02000678805115954,0.03706661786940641,0.19207496367031143,0.3284092623919178,0.2650079967380353,0.42617451144322055,0.4805460237375308,0.30651652855584866,0.4440285721536866
0.20080563073141183,0.4632009431824915,0.28085104234585684,0.4468320694636477,0.15110460499542633,0.09930264186521881,0.07776428272950414,0.019898130161932818,0.037173949102980705,0.18868795070318958,0.32533552365079227,0.26125060763063535,0.4248902150190959,0.4773158542656187,0.3067513057341776,0.44253364375581006
0.20324201260723615,0.4646177764288526,0.2846818037653667,0.4472255002778003,0.15104141696382106,0.0995001745527023,0.07585341387723453,0.019783715565350832,0.037264294737238496,0.18529646174340292,0.32227798407555336,0.2575005540805551,0.42338622455870223,0.4738897921576467,0.3070829729349092,0.4408142315456737
0.20558301454759073,0.4658063068307843,0.2885676437376685,0.44752355175769354,0.15094188880570059,0.09968409853481547,0.0739591587351608,0.01966379437825267,0.03733730482888708,0.18190360740753173,0.3192433747525347,0.25376126824455864,0.42166328798794694,0.47027262241876916,0.3075124387222764,0.4388726354125082
0.20782446675167127,0.46676734853469976,0.2925045504087147,0.44773092871165576,0.1508074868110128,0.09985422129754509,0.07208254259052428,0.019538628389078688,0.03739273474361338,0.17851249741212918,0.31623792534979783,0.25003647187415434,0.41972317593066427,0.46646976574904275,0.3080401756253416,0.4367122321669802
0.20996203173721723,0.46750243792046176,0.2964882628964572,0.4478527184164533,0.1506399417875425,0.10001047503381713,0.0702244743050808,0.019408481341926458,0.03743043701175461,0.1751261342982173,0.3132673995421201,0.24633005952822631,0.4175687645918978,0.46248700269363135,0.30866615087046856,0.43433748986120585
0.21199112572972714,0.46801356828182566,0.30051431300992837,0.44789413447348053,0.15044117072738256,0.10015288717295076,0.06838574383451407,0.019273608198334926,0.03745034480946923,0.1717473138414921,0.3103371068960114,0.2426459587323415,0.41520402336904544,0.45833014461901356,0.30938979135557826,0.43175389828327276
0.21390698778185419,0.4683028633485651,0.304578044956678,0.4478602170566351,0.1502131770301917,0.10028153824065827,0.06656703966655167,0.019134244371690704,0.03745244747731817,0.16837857203374026,0.30745189574758286,0.23898797873995828,0.41263391291719936,0.4540046926116739,0.3102100183808117,0.428967822658297
0.2157048618113123,0.4683722189159235,0.3086746079661269,0.4477555398870447,0.14995793617710176,0.10039650779693923,0.0647689753171218,0.01899059798071779,0.037436759014550305,0.16502220801112033,0.3046161328072656,0.23535966805328273,0.4098642041886308,0.44951559426642135,0.31112533635082834,0.4259862910139753
0.2173802053292985,0.46822300929473787,0.3127989177348526,0.44758405732881623,0.14967728542526673,0.10049781145859023,0.0629921143180527,0.01884284910577877,0.03740328353642373,0.16168036032191654,0.3018336758483475,0.2317642218131532,0.40690123265976674,0.44486722811612117,0.31213393521238264,0.42281672824350086
0.2189288756857652,0.4678560140511518,0.31694558443805043,0.44734919388244715,0.14937286059208837,0.10058534454882975,0.06123699038641135,0.018691156401866787,0.03735199000332817,0.15835509116983165,0.29910784583386957,0.2282044749553306,0.40375160440232927,0.4400636149905626,0.31323378408777747,0.4194666515654818
0.22034727526312697,0.4672716148745652,0.32110881354707255,0.44705410817521724,0.14904611290084038,0.10065886427483076,0.0595041224959092,0.018535667125061644,0.0372828114947934,0.15504845526256944,0.29644140421505244,0.22468296378237743,0.40042187182201594,0.43510872028428044,0.314422708112722,0.4159433514880665
0.22163244284418504,0.4664701324744671,0.32528231586992556,0.4467019911509509,0.1486983838041348,0.10071802690323256,0.05779402479171174,0.018376526986962592,0.037195669989881275,0.15176254886753862,0.29383653996111625,0.2212020014274161,0.3969182282065198,0.4300067311626511,0.3156984430495393,0.4122536311492393
0.22278208179172088,0.46545215760655256,0.3294592914238669,0.44629632665288393,0.14833098954998114,0.10076245802301152,0.05610721149331015,0.018213888681279825,0.037090511985542064,0.14849953886267767,0.29129486928006143,0.21776373138951552,0.39324633730134967,0.4247622721591391,0.3170586634193239,0.40840372653040335
0.2237945200751778,0.4642188221750499,0.33363251507442876,0.44584109625611784,0.1479452892731465,0.10079182604445394,0.05444419710705875,0.018047918851257724,0.036967341792314576,0.1452616726915722,0.28881744913117413,0.21437015278690716,0.3894113865054309,0.4193805527625763,0.31850098129225607,0.4043994492136423
0.22466860218260382,0.46277199779017764,0.3377944808701053,0.4453409200678729,0.14754273088788009,0.10080590692552634,0.052805492414442434,0.017878803313326523,0.03682624787767982,0.14205127110478316,0.2864048037042019,0.21102312111580862,0.38541830228386553,0.41386744413332294,0.32002291441869063,0.40024644412689686
0.22540351809872197,0.46111441272533404,0.34193754860669856,0.44480112891796064,0.14712487382367248,0.10080463694695437,0.05119159681153665,0.017706750408380836,0.03666742103952019,0.1388707063367007,0.28405696123943,0.2077243302014672,0.38127199688497165,0.40822948552579486,0.32162182399879174,0.3959504407775952
0.22599857932531403,0.4592496823423455,0.3460540649044275,0.4442277672696966,0.14669338881111474,0.1007881509681261,0.049602987650514456,0.01753199241654586,0.036491163770568324,0.13572236888989267,0.28177349705735877,0.20447528234931597,0.3769775770536803,0.402473824203426,0.3232948240001994,0.3915174565720434
0.22645298909508144,0.45718225252357136,0.35013644463893806,0.4436275300017295,0.14625003598472136,0.1007568043604726,0.048040107279311225,0.017354785041818466,0.0362978907638576,0.13260862635934073,0.2795535775867726,0.2012772543199741,0.3725405010664119,0.396608095502664,0.32503866547029314,0.3869539472950523
0.22676572527045466,0.4549172602098628,0.35417719995606806,0.4430076396688316,0.14579662348829836,0.10071117767271119,0.04650334849594797,0.017175405045795875,0.03608812105611761,0.12953177773336877,0.27739599960891576,0.1981312665966976,0.36796668250004805,0.390640252142732,0.32684961887574704,0.3822669021580315
0.22693562292789887,0.45246031951095733,0.3581689068808537,0.44237567371004427,0.14533494951891912,0.10065206397131604,0.0449930397937737,0.016994146180339058,0.035862462768838387,0.12649400638429206,0.2752992189096337,0.19503806249740158,0.3632625414570569,0.3845783538069575,0.3287234164880247,0.3774638831142907
0.22696159472101923,0.44981724574805143,0.36210410374292,0.4417393531617447,0.14486673131122074,0.10058043966149761,0.043509434570706364,0.016811313632945076,0.03562159175700605,0.12349733455404413,0.2732613630450151,0.19199810208900836,0.3584350059689962,0.37843032937030424,0.33065530131960363,0.3725530103461298
0.22684286883556104,0.44699373295246864,0.3659751211058355,0.44110630565087333,0.1443935302561503,0.1004974203775478,0.04205271054988418,0.016627217251641454,0.03536622569930657,0.12054358523272328,0.27128022394069734,0.18901157373671737,0.35349146796769165,0.3722037420235785,0.33264015129350366,0.3675428979068366
0.2265791852576417,0.4439950403830925,0.3697738848330932,0.44048381576764967,0.14391669863752996,0.10040420419466636,0.040622980746865656,0.01644216385475099,0.035097095260464645,0.1176343639516494,0.26935322749905743,0.18607842366381067,0.34843969953785986,0.3659056343332797,0.3346726175464793,0.36244254539906967
0.22617093519492262,0.4408258250405087,0.3734918171701497,0.4398785971779807,0.14343737825390657,0.10030200492613375,0.03922030993216869,0.01625644895228584,0.03481491476272496,0.11477106781684408,0.2674773850472624,0.18319840134990673,0.34328773614676833,0.3595425331838882,0.3367472469338254,0.3572611932222294
0.2256192365859016,0.4374902231620159,0.3771199398375605,0.43929666549778507,0.14295655136476101,0.10019198000576642,0.037844730413414206,0.016070348745139008,0.034520358879054844,0.11195491144266558,0.2656492542221259,0.18037111622815616,0.33804373419227146,0.35312059886832986,0.33885857927731944,0.352008150246707
0.22492594304246197,0.43399210859205,0.38064913004935114,0.4387433677589417,0.1424751136468313,0.100075168538168,0.0364962550703356,0.015884114792997162,0.03421405549136973,0.10918695397546223,0.2638649521973172,0.17759609923296457,0.33271581053189586,0.34664582228245083,0.34100121200657507,0.34669260369072563
0.22409358797865256,0.4303353803098237,0.38407040799947995,0.43822351941844695,0.1419939431263022,0.09995246923078499,0.035174887319888215,0.015697974007772307,0.03389659740036917,0.10646812067318441,0.2621202356525059,0.17487286154843487,0.32731187166914616,0.34012419822582307,0.34316982589973266,0.34132342371326685
0.22312526977156683,0.42652420281733266,0.3873751857119509,0.43774155672283815,0.14151395640047532,0.09982467157813503,0.03388062779793636,0.015512133653069308,0.033568563206368855,0.10379921908629743,0.26041061915891767,0.17220094258989124,0.32183944889136296,0.33356185466979743,0.3453591671359374,0.33590899958894743
0.22202448729539465,0.4225631817427175,0.39055544863173886,0.4373016591631357,0.14103614983784563,0.09969251686944895,0.032613477663282896,0.01532678830745495,0.033230537133485,0.10118095097567323,0.258731498524183,0.1695799398829439,0.3163055837329414,0.3269651358290222,0.3475639828355762,0.3304571775802761
0.22079493783429757,0.4184574689709037,0.3936038495477735,0.43690783555781076,0.14056162403280228,0.09955675979653142,0.031373438557558295,0.015142126425706318,0.03288312457344635,0.09861392118378245,0.25707826214456175,0.16700951502680864,0.3107168176630809,0.32034063943491664,0.3497789096512857,0.32497532930023076
0.21944029856471794,0.41421279559574586,0.39651370049631846,0.43656397528408647,0.1400915904282235,0.09941822027671146,0.030160509388473856,0.01495833584546444,0.03252696320561564,0.09609864462572515,0.25544638031412714,0.16448937216306375,0.3050792847207379,0.31369521094914593,0.3519983176964918,0.31947048688663976
0.21796404880185538,0.40983543485728297,0.39927885593467577,0.43627386779664223,0.139627359699403,0.09927782411236932,0.028974680240527566,0.01477560816986186,0.03216272972635307,0.09363555239822274,0.2538314631049545,0.16201920804900694,0.29939884616501317,0.3070358994429469,0.3542161420759818,0.3139494688252468
0.21636941947283586,0.4053321007671986,0.4018934891258904,0.43604119481987536,0.139170312207769,0.09913663162320821,0.02781592385090888,0.014594141990515062,0.0317911423682665,0.09122499773921197,0.25222927899288616,0.1595986356362663,0.2936812153752329,0.3003698814128596,0.3564257965002519,0.3084189712117683
0.21465949291376518,0.40070979115261307,0.40435177463226896,0.4358695004635965,0.1387218515685383,0.09899585388337329,0.02668418521164969,0.014414144943604958,0.031412959510919554,0.088867262238648,0.25063572879700063,0.1572270981716499,0.2879320580613951,0.2937043598519035,0.3586202486204224,0.30288562390479173
0.21283737431194594,0.3959755862233412,0.4066475599743261,0.4357621449967413,0.13828334310818904,0.09885685665369938,0.025579371469394784,0.014235834616294896,0.031028974782929618,0.08656256233923798,0.24904677256925067,0.15490382158508295,0.28215706666326895,0.2870464464300391,0.36079222106722725,0.29735601310741977
0.2109063510757879,0.3911364153994492,0.4087742281120044,0.4357222481330661,0.13785604046789796,0.09872115250470191,0.024501347529176067,0.014059438343908267,0.03064000913468408,0.08431105581292744,0.2474583105735193,0.15262784775180996,0.2763620087898902,0.2804030346744385,0.3629344264587303,0.29183667377476824
0.20887001242308442,0.38619882289389323,0.41072488163051996,0.435752627457918,0.13744101685127405,0.09859038196804693,0.02344994135572813,0.013885191962554675,0.03024690042408966,0.08211284759203707,0.24586603894638373,0.15039813334677654,0.27055275044873717,0.2737806762056158,0.3650397844411301,0.28633405676894996
0.20673232683497025,0.38116880981419254,0.41249272828158257,0.4358557370859648,0.13703913897668427,0.09846628482828779,0.02242495599108381,0.013713337608806912,0.029850491106820285,0.0799679941052393,0.244265349135154,0.14821366565592936,0.2647352556173463,0.2671854898905986,0.3671016017478367,0.2808544767955957
0.20449767762684476,0.3760518358529176,0.4140714735087189,0.4360336108271909,0.1366511066591637,0.09835066287355329,0.021426182378766617,0.013544120687570166,0.02945161465791328,0.07787650514391947,0.2426513534379845,0.14607356503493257,0.25891556440359065,0.2606231446310668,0.36911370171908875,0.2754040478113878
0.2021708591516302,0.37085296869240464,0.4154556346623835,0.4362878131050423,0.13627753356867311,0.09824533557009434,0.020453409942805922,0.013377786159583266,0.029051081371858634,0.07583834228201611,0.24101904030919277,0.14397716438158686,0.2530997526109812,0.2540989201992805,0.37107049204158055,0.2699886127769329
0.19975703797199368,0.3655770856318183,0.41664075266145506,0.436619399678978,0.13591903277904055,0.0981520902217586,0.01950643415310069,0.013214574327631139,0.02864966495801786,0.07385341300068977,0.23936348582648373,0.1419240616540923,0.2472938759617643,0.24761780146822734,0.3729669626804997,0.2646136743585946
0.19726168466185015,0.3602290536279134,0.41762348465977694,0.4370288889435606,0.13557629253304557,0.09807262833347677,0.018585060785007632,0.013054716321417588,0.02824809353876366,0.07192155992459917,0.23768005696421374,0.13991414347895362,0.2415039025261515,0.2411845640018495,0.37479860991322134,0.25928433249748284
0.1946904827128691,0.3548138663465628,0.41840157024899577,0.4375162432805616,0.13525013882139125,0.09800851708433005,0.01768910679106202,0.012898429491416214,0.02784704891671494,0.07004254494170829,0.23596458090167843,0.1379475798474331,0.23573563705759507,0.23480383901417512,0.37656128679869244,0.2540052340611588
0.1920492213554764,0.34933673526958403,0.41897367306060534,0.4380808587020813,0.13494158190630934,0.0979611682941907,0.016818397923611526,0.012745913008107351,0.02744717328511072,0.06821603040811028,0.2342134689547187,0.1360247916528374,0.22999464094331987,0.22848015816248626,0.37825098504124816,0.24878054007220618
0.18934367901139054,0.3438031342881018,0.41933910855158174,0.4387215599115288,0.13465184457676957,0.09793185867325833,0.015972763460815744,0.012597344467624864,0.02704907829588182,0.06644156636301965,0.2324237866491274,0.1341463942766916,0.22428615463052778,0.2222179794905159,0.3798635627819339,0.24361391379552813
0.18657950365106932,0.33821879942187716,0.4194974766127228,0.439436596991677,0.13438237067715122,0.09792177571653417,0.0151520285770359,0.012452878786531512,0.026653352557145387,0.06471859565611415,0.23059326502386213,0.13231312153986066,0.21861504207153032,0.21602169649018776,0.3813944880698794,0.23850852510028525
0.1837621071740786,0.3325896872421963,0.4194482593907337,0.44022363926610825,0.1341348132792819,0.09793206634116838,0.01435600569507419,0.012312649664823429,0.02626056649599818,0.06304647867487703,0.22872025217985834,0.13052573508157858,0.21298578454702666,0.2098956327076536,0.38283874676264923,0.23346706463812453
0.18089661313073443,0.3269218971766318,0.41919054475950585,0.44107976152694034,0.13391100274218853,0.09796387966056753,0.013584488329365657,0.01217677220649074,0.025871274568326334,0.061424527453080704,0.22680360805956784,0.1287849271216516,0.20740252718996918,0.2038440245939603,0.3841909981970633,0.22849176951780212
0.17798788256985448,0.3212215640935615,0.4187230455012538,0.44200141782306623,0.13371289579556003,0.09801840249340256,0.012837251677754857,0.012045345261287862,0.02548601494380607,0.05985203937337633,0.22484254912845394,0.12709123969024216,0.20186914894019814,0.19787099541085373,0.3854458813460327,0.22358446325975329
0.17504058962329822,0.31549472838183223,0.4180443945369606,0.4429843983896817,0.13354250765774484,0.09809688635549899,0.012114060152889168,0.011918453098352795,0.02510530693356488,0.058328326465470495,0.22283645273182534,0.12544503941047938,0.19638932812181348,0.1919805229690598,0.3865983315554896,0.21874660563521123
0.1720593017645737,0.3097471911568928,0.41715353447851594,0.44402376797689425,0.13340183001707465,0.09820066487976,0.01141467751890161,0.011796166492719702,0.024729646552096328,0.05685273858268723,0.22078464592337496,0.12384656171553982,0.1909665952394099,0.18617640382206568,0.3876438504463169,0.2139793454236268
0.1690485456730921,0.3039843723068162,0.4160500595464439,0.44511380349381924,0.1332927444568547,0.09833116086010814,0.010738875736834042,0.01167854334658065,0.024359500707076563,0.05542467908696153,0.21868624742936926,0.12229599049752797,0.18560437255825055,0.18046221628584558,0.3885787142498818,0.20928357052915955
0.16601285677946537,0.29821121711438736,0.4147344631154264,0.4462479805742074,0.133216960117354,0.09848988242488176,0.010086441209857534,0.01156562899653471,0.023995300702599042,0.05404361213155649,0.21654015008090302,0.12079353411704569,0.1803060005501762,0.1748412843277944,0.38940010976843864,0.20465995066653006
0.16295681290043043,0.2924322007310229,0.41320827869370125,0.447419045580629,0.13317601094455242,0.09867840821517734,0.00945717820402529,0.01145745637343647,0.023637436695828858,0.0527090611587636,0.21434515207066057,0.1193394842569241,0.17507475175951548,0.16931664440268765,0.3901061916832329,0.20010896833418035
0.15988505285612123,0.28665142318405534,0.4114741096560041,0.44861915352832615,0.13317131396660156,0.09889836187079765,0.008850909435024024,0.011354046181328736,0.023286255790144955,0.05142059878092274,0.2121001523771084,0.11793425602733264,0.16991383305640098,0.16389102119902196,0.39069605968734106,0.19563093460161582
0.15680228133013555,0.28087273726802164,0.4095355504934318,0.4498400334041771,0.1332042536488402,0.09915137659904935,0.008267474021752158,0.011255407246135636,0.022942064612036465,0.05017782874551729,0.2098043325286977,0.11657840873625054,0.16482637758725105,0.15856682367010677,0.3911696585123666,0.19122598730046866
0.153713261498585,0.27509986486583815,0.40739700914490296,0.4510731626825153,0.13327626155110994,0.09943905109794443,0.00770672319561898,0.011161537154548914,0.02260513371663231,0.0489803611643334,0.20745729922216907,0.11527264773333278,0.15981542799692172,0.1533461651463143,0.3915276080090734,0.1868940704631582
0.15062279713328044,0.2693364891786401,0.405063445670812,0.4523099428932181,0.13338888074630942,0.09976289859343614,0.0071685143040151845,0.011072423261431697,0.022275700773662612,0.047827782585838835,0.20505918357280536,0.11401780867058645,0.15488391268252769,0.14823089542850315,0.3917709737726711,0.18263489522355408
0.1475357059903897,0.263586321408118,0.40254004680206346,0.4535418668228504,0.13354381221335496,0.10012429812595655,0.006652704070399038,0.010988044093675452,0.02195397140028482,0.0467196267658894,0.20261069537995832,0.11281482635429056,0.15003461694834058,0.14322263150846917,0.39190099121352895,0.1784478932485891
0.14445678634125914,0.25785314154672107,0.3998318727871316,0.4547606671556651,0.1337429414257947,0.10052447129406751,0.006159143387388484,0.010908371123939536,0.021640117460824594,0.04565536036194251,0.20011313319629023,0.1116646910468347,0.1452701509711593,0.13832278313848043,0.3919187581468755,0.17433219654297433
0.14139077849604534,0.25214081395374255,0.39694357469224417,0.4559584361960378,0.13398834447189936,0.10096449985566144,0.005687676641800907,0.010833370833340185,0.021334273996416516,0.044634393691596774,0.19756835307980042,0.1105683955790287,0.14059291646431726,0.1335325737915557,0.391824952727858,0.17028667414017998
0.13834232312054232,0.2464532793023282,0.39387932454943786,0.45712770683097664,0.13428227418090258,0.10144536935884259,0.005238145998521838,0.010763006931907687,0.021036538707939763,0.04365610839766919,0.19497870061463987,0.10952687692759612,0.13600507716970126,0.12885305766230365,0.3916197091432338,0.16631001569429085
0.13531591805786838,0.24079452525536565,0.3906429912391699,0.45826148611657797,0.13462712780645708,0.10196801475032363,0.0048103976443446645,0.010697242563022416,0.02074697748139626,0.04271988676483431,0.19234691207885493,0.1085409575635905,0.13150854543612467,0.12428513341030442,0.39130272976047054,0.16240082980785348
0.13231587534410497,0.23516853885477657,0.3872384309194786,0.4593532347750599,0.1350253987507749,0.10253335768688668,0.004404287101660624,0.010636042286213572,0.02046563493713764,0.041825135198368175,0.18967599151196773,0.1076112993886357,0.12710499409603895,0.11982955534606377,0.3908735404681762,0.1585577373991158
0.12934628522106095,0.22957924408145475,0.3836697562591397,0.46039678838007303,0.1354796155349153,0.10314233335324186,0.004019682740828867,0.010579373614503458,0.02019254690463679,0.040971300152557226,0.1869690709097674,0.1067383888700881,0.12279588625571483,0.11548694270495646,0.39033175532416436,0.15477945264470966
0.12641100319324125,0.22403042835817205,0.37994153882123083,0.4613862189442093,0.13599227168856762,0.10379590545996681,0.003656467523390976,0.010527207880411239,0.019927753098638257,0.04015787591624871,0.18422926087830668,0.105922556638666,0.1185825076236831,0.1112577875503322,0.3896773014604189,0.1510648465888068
0.12351366859668458,0.21852566192436787,0.37605893886796077,0.46231563881864635,0.13656575042924007,0.10449506873218059,0.00331453914909993,0.010479520220743173,0.01967130912487362,0.03938440419732722,0.18145951127413806,0.10516401146104808,0.11446599297721141,0.10714246170013365,0.38891059850315235,0.147412989523818
0.12065774105095249,0.21306821857715796,0.37202776116553676,0.46317895206152104,0.13720225516075849,0.10524083885677168,0.0029938088871123317,0.010436288505389328,0.01942329690337409,0.038650465982328616,0.17866252955193498,0.1044628685418504,0.11044734512412233,0.10314122289467545,0.3880326888663651,0.14382316955010047
0.11784653695600517,0.20766102121888552,0.3678544393925921,0.4639695906882428,0.13790377142617097,0.1060342304922916,0.0026941994382368144,0.010397491089072577,0.019183832588707407,0.03795566664223427,0.17584079668431452,0.10381916629445066,0.10652744639890066,0.09925422023491996,0.38704531726178826,0.14029488621025363
0.11508326002053913,0.2023066414631216,0.3635459553240818,0.4646803499017468,0.13867207792291097,0.10687622452694992,0.0024156421990712954,0.010363103335033466,0.018953071116591783,0.03729961567370167,0.17299665844999612,0.10323287215407606,0.10270706313248865,0.09548149874257839,0.3859509595837473,0.13682781965131843
0.11237102559096009,0.19700735386548368,0.3591097019276136,0.46530343941994257,0.13950879043109132,0.10776772627016552,0.0021580742836507807,0.010333092941581525,0.01873120662310956,0.03668190277688997,0.17013243488709923,0.1027038788675306,0.09898684391387125,0.09182300274800971,0.3847528029384628,0.13342177727771096
0.10971287875323928,0.1917652129505457,0.3545533017503492,0.4658307315481216,0.1404154099216213,0.10870951839061169,0.0019214356113580041,0.01030741497760711,0.01851846817020156,0.03610207509169318,0.16725051403718152,0.10223199341992084,0.09536731278805928,0.0882785777184368,0.3834546799723874,0.1300766212103441
0.10711180636835231,0.1865821252130523,0.34988439340849037,0.46625408545807134,0.14139336149176052,0.10970222120502585,0.0017056663478309158,0.010286009370745195,0.018315110467776934,0.03555962609823228,0.16435342253179133,0.10181692126461248,0.09184885878110545,0.08484797011065288,0.3820609618052185,0.126792180972556
0.10457074337142715,0.18145990782055088,0.3451103995860556,0.46656566098106395,0.14244402223947672,0.1107462810529256,0.0015107051283043235,0.010268803218783203,0.018121399599976325,0.03505400252787854,0.16144387244580202,0.101458248743366,0.08843172328609614,0.08153082487460035,0.3805764147933645,0.12356816702326903
0.10209257381131098,0.1764003332844315,0.3402383175257817,0.4667581922354095,0.14356873818829316,0.11184199405706377,0.0013364885549980007,0.0102557169324697,0.017937596485646495,0.03458462178391405,0.15852478484370772,0.10115542649056707,0.08511598848314988,0.07832668034434384,0.37900602705019676,0.12040412417876432
0.09968012722778197,0.17140515997510664,0.33527462479035314,0.4668252077755725,0.14476883080781047,0.11298954858681531,0.0011829518797501365,0.010246671533610311,0.017763947055442868,0.034150888270286034,0.15559929133521952,0.10090775622363952,0.08190157321286916,0.07523496042116923,0.37735481114645486,0.11729945637924716
0.09733617105541004,0.16647614890796725,0.3302253537963894,0.4667611861354226,0.14604559398720118,0.11418906714503325,0.0010500300874869452,0.010241595586879676,0.017600688396824826,0.033752203596382015,0.15267071571292976,0.10071438268543806,0.07878824061604567,0.07225496483032283,0.37562758972579396,0.1142535049250861
0.09506339980419522,0.16161506769495876,0.3250962650443092,0.46656163840388376,0.14740028251724055,0.11544064038388925,0.0009376587658676694,0.010240431255792971,0.017448069503748487,0.03338796979468208,0.14974253835496457,0.1005742917052392,0.07577561340213658,0.06938586181690815,0.3738287854807683,0.11126563758097598
0.09286442179682713,0.1568236829272014,0.3198930199867382,0.46622311268341454,0.14883409323970911,0.11674435141163952,0.0008457747262170509,0.010243139154374336,0.017306377549395038,0.033057585450030784,0.14681834653475445,0.10048631447703664,0.07286318906493877,0.06662669121951616,0.37196227918534136,0.10833532455391263
0.09074174424136708,0.15210374252343947,0.31462131729597453,0.46574311878532687,0.15034814005468744,0.11810028895266694,0.0007743165663395225,0.010249701723300335,0.017175963004271187,0.032760435177921814,0.14390177408872987,0.10044913731055438,0.07005035117916107,0.06397638115834646,0.37003140902385845,0.10546219534291619
0.08869775738837185,0.14745694975396278,0.3092869897246899,0.46511997514314185,0.15194342395776075,0.11950854839260974,0.0007232253577470819,0.010260124931643973,0.01705726087705327,0.03249587437010967,0.14099643405346818,0.10046131537375533,0.06733637630119833,0.06143377239291233,0.3680391061128839,0.10264607477643074
0.08673471846630328,0.14288493074384961,0.30389606133277425,0.4643525835043605,0.153620799226374,0.12096922026958068,0.000692445603923716,0.010274438187985423,0.016950806485318475,0.03226321564445154,0.13810584789981156,0.1005212883792892,0.06472043685392313,0.058997643069814525,0.36598808697444873,0.09988699778504828
0.08485473678937282,0.1383891972894573,0.2984547666092701,0.4634401403249668,0.15538093679788492,0.12248236634791976,0.000681926555348879,0.01029269243268024,0.016857244461713338,0.03206172691193817,0.13523337758978793,0.1006273958130013,0.0622016005980198,0.05666673090688932,0.36388103949292294,0.09718520365069522
0.08305976404951286,0.13397110680288468,0.2929695344892513,0.4623817967827875,0.15722428578796366,0.12404798401374678,0.0006916238885119879,0.010314956471789684,0.01677733012130858,0.03189064429188008,0.13238217654712686,0.1007778891794107,0.059778827422424796,0.054439751878891086,0.3617207833156359,0.09454111155866288
0.08135159497510444,0.12963182295556686,0.28744694143742766,0.4611763188506531,0.159151036414105,0.12566596033783153,0.0007215016711314082,0.010341311698328831,0.016711922828857157,0.031749192162498614,0.12955518053933185,0.10097093884496094,0.0574509654799311,0.05231541465020929,0.35951040085530467,0.09195528019709183
0.07973187836400611,0.1253722878482882,0.2818936386457757,0.45982188755484465,0.1611610942401036,0.127336021610815,0.0007715344571199528,0.010371845424349059,0.01666197156996301,0.03163660139792386,0.1267551392324321,0.10120463337527354,0.05521675135591864,0.05029243025292565,0.3572533359903008,0.0894283548548814
0.07820213241401182,0.12119322141575119,0.27631625898270007,0.4583161651381351,0.16325407677301756,0.12905769624071192,0.0008417092949407065,0.010406643114683081,0.016628493498548905,0.031552122007028734,0.12398466397867473,0.1014769697555792,0.053074817911951344,0.048369516808543546,0.35495345857279786,0.08696100593435269
0.07676375906278901,0.1170951506615901,0.27072130965047453,0.45665657830544293,0.16542933111661323,0.1308303126183153,0.0009320274017375254,0.010445780770673093,0.016612546751075638,0.031495028954796014,0.12124626975800888,0.10178583351491052,0.051023707841629455,0.04654539940761526,0.35261509391414597,0.08455386333878068
0.07541805589369589,0.11307845273897464,0.26511505657160817,0.4548406654370055,0.16768596062821395,0.13265303278210475,0.0010425052586226313,0.01048932072012791,0.016615202259615817,0.03146462050604975,0.1185424049729174,0.10212897106947517,0.04906188854130445,0.04481880556020251,0.3502430174863682,0.08220745926176909
0.07416622563103017,0.10914339623160167,0.2595034142504495,0.4528663919291677,0.17002285148379756,0.13452490122631142,0.0011731749199822374,0.010537313405430696,0.016637526598242,0.03146020903355138,0.11587546922695718,0.10250396689964718,0.04718776608603692,0.043188456881434516,0.3478424161204413,0.07992220493363793
0.07300938330972637,0.10529017570889154,0.2538918758719261,0.450732405588654,0.17243869666135336,0.13644489070501686,0.0013240833961144906,0.010589803621928236,0.016680586424085587,0.03148110482049767,0.11324781979291858,0.1029082456546225,0.04539969781017487,0.04165305785706151,0.345418817958044,0.07769841363532665
0.07194856125318258,0.10151893907582006,0.24828551915684832,0.4484382213823396,0.17493201688182403,0.13841193840824423,0.001495291053539674,0.010646837701329601,0.016745470208734823,0.03152659592287426,0.11066176795546806,0.10333910642673035,0.043696003227032924,0.0402112826302739,0.3429779942895377,0.07553634816879702
0.07098471202890914,0.09782980750882858,0.24268907932468262,0.44598432826574674,0.17750117799489637,0.14042497038495344,0.0016868690676236637,0.010708469723966598,0.016833314078802033,0.031595933460832275,0.10811956677536835,0.10379377625650212,0.0420749730139121,0.03886176076063541,0.34052583715897583,0.07343626499098681
0.07011870957552682,0.09422288803983964,0.23710704431281449,0.44337221463353516,0.18014440422245415,0.14248291302581212,0.0018988960442104564,0.010774766248953021,0.01694532349582316,0.0316883335503183,0.10562339206286965,0.10426946751538455,0.040534875773864006,0.03760306411007339,0.3380682172160425,0.07139844555056415
0.06935134870699347,0.09069827910981051,0.23154373944001647,0.44060431294887964,0.1828597865841465,0.14458469154217246,0.002131454169772542,0.010845809346573077,0.017082788490531874,0.03180299662480152,0.1031753184746003,0.104763432015427,0.039073962283373474,0.03643369983831633,0.33561082673252446,0.06942321456059894
0.06868334320170627,0.08725606965080232,0.22600339291697386,0.43768386808383924,0.18564528574101105,0.14672921655664234,0.002384625998730707,0.010921697808900864,0.01724709189854404,0.03193913424027032,0.10077729267813096,0.10527300810176295,0.03769046696283058,0.03535211361321165,0.3331590149528336,0.06751094575148067
0.06811532267655468,0.08389633246149865,0.22049018169871135,0.4346147375969961,0.188498728424027,0.14891536098683486,0.002658493490937,0.011002546518093253,0.01743971052091262,0.03209599458840892,0.09843110682362015,0.10579565708725844,0.03638260637605122,0.034356700672417376,0.33071764646442986,0.06566205637213467
0.06764782843065614,0.08061911280732592,0.2150082580355379,0.43140113535580416,0.19141779658866143,0.15114193018170444,0.002953139720631275,0.01108848406062484,0.017662209573063973,0.03227288340676586,0.09613838006040334,0.10632898574850323,0.03514857467980616,0.033445818746520646,0.32829104877156295,0.06387699229840543
0.06728130842213897,0.07742441329646936,0.20956175784416983,0.4280473323807789,0.19440000847784172,0.15340762861470156,0.0032686519388055784,0.011179648781564364,0.01791623116032243,0.032469179106193714,0.09390055751401599,0.10687075221421104,0.0339865360984292,0.03261779937267222,0.3258830830360825,0.062156206030496076
0.06701611151585754,0.07431217615278275,0.20415479266444791,0.4245573418779952,0.1974426909032274,0.15571102627202946,0.0036051246258649887,0.011276183566485501,0.01820347780831125,0.03268434136699955,0.09171892652917381,0.10741885341684616,0.03289461467698629,0.0318709569679126,0.3234972869935405,0.06050013009521957
0.06685248111258232,0.07128226402376057,0.19879142747386017,0.4209346684646517,0.20054294227776762,0.15805052720979423,0.003962662092400427,0.011378229711051221,0.018525692272463923,0.03291791290595492,0.08959463893547928,0.1079712933011392,0.031870883952024996,0.031203595723331652,0.32113702293995655,0.05890914840695848
0.0667905482435154,0.06833444042674655,0.19347564699451006,0.41718224448170005,0.2036975862497807,0.16042434169558825,0.004341380578890589,0.011485920283202592,0.018884634951768366,0.03316951453801116,0.08752872937955918,0.1085261321257341,0.03091336376083801,0.030614014385634183,0.3188056067618122,0.057383569390506095
0.06683032425721519,0.0654683533015303,0.18821131334517113,0.4133025859378366,0.2069031217440336,0.16283046207446517,0.004741409827286887,0.011599373917468979,0.019282061962098106,0.03343883400939506,0.0855221266204663,0.1090814183794524,0.030020029256667413,0.030100508968148847,0.31650641482777203,0.055923608220188485
0.0669716943139326,0.06268352971577254,0.18300211797064014,0.4092980562729421,0.2101556901362647,0.165266641215884,0.005162894108984813,0.0117186910653248,0.01971971098418511,0.03372560933976822,0.08357565750350711,0.10963511428318468,0.0291888280548814,0.02966137339647316,0.3142429662705092,0.0545293850519949
0.06721441478660084,0.0599793863456224,0.17785153073222199,0.4051711193808488,0.21345108235628849,0.1677303713068732,0.005605992698237351,0.011843954127357297,0.020199301122517808,0.03402960757709356,0.08169004377281008,0.1101850481044924,0.028417698628095654,0.02929489806389487,0.31201897896419106,0.05320093662352884
0.06755811646988334,0.05735524926436614,0.172762751326549,0.4009245420341064,0.2167847846087187,0.17021886040058232,0.006070879781916569,0.01197523021019876,0.020722543978488852,0.03435059995324786,0.07986589236511932,0.11072892779403314,0.02770458709334753,0.02899936626516873,0.3098383983291094,0.051938230899949936
0.06800231155233959,0.05481037379892124,0.16773867649035906,0.3965615406221051,0.22015204241909161,0.17272900975942207,0.006557743798980753,0.012112574057908757,0.021291157402120196,0.034688335947495576,0.07810368180315297,0.11126441104006289,0.027047461723272895,0.028773048505045862,0.3077053989464548,0.05074117749963593
0.06854640139031853,0.0523439609841005,0.1627819000031826,0.3920858698812125,0.22354792782917293,0.1752574068191337,0.007066786207332232,0.012256029882045211,0.02190687646969633,0.03504252387407641,0.07640375238971744,0.11178919667339432,0.02644432463448737,0.02861419474320893,0.30562435981647595,0.049609632627541665
0.06918968403332126,0.04995517049006688,0.15789474562314318,0.3875018538628747,0.22696740411442093,0.17780034760212743,0.007598219681105718,0.012405631900654211,0.022571460372070813,0.035412828189277504,0.07476630976235722,0.11230111149329938,0.0258932202440861,0.02852102473523553,0.30359981491298876,0.048543399398918476
0.06993136135757605,0.047643130259627214,0.1530793132693302,0.3828143616596388,0.23040538477019346,0.18035388565696522,0.008152265745587936,0.012561403682505913,0.023286695115561428,0.03579888497146901,0.07319144275280928,0.11279818330973009,0.025392240233443223,0.028491717943630604,0.30163638144633054,0.047542224688096664
0.0707705456124533,0.04540694322443726,0.14833752118168284,0.37802873234284,0.23385678336408283,0.18291389724999846,0.008729151857496495,0.012723356482470685,0.024054392135575874,0.036200326210554204,0.07167914680356104,0.1132786961558605,0.024939524907729493,0.02852440750712711,0.2997386689163826,0.04660579375015173
0.07170626512794337,0.043245691557916875,0.14367113925988334,0.373150655148914,0.23731655083627684,0.18547615749811272,0.009329107933672132,0.012891486827398399,0.024876383099812074,0.036616804068141766,0.07022934472101242,0.11374122462248366,0.024533260981520394,0.028617182583675002,0.29791117259138145,0.04573372384337377
0.07273746887509651,0.04115843896403724,0.13908181370883757,0.3681860121957411,0.24077969696169946,0.18803642414852154,0.009952362321500456,0.013065773663575982,0.025754511330426007,0.03704801212795728,0.06884190157357802,0.11418464545756006,0.024171675949190532,0.028768097831427947,0.29615815546631563,0.044925557945938756
0.07386302952014664,0.03914423149594308,0.1345710835196549,0.3631406919353825,0.24424129297777766,0.19059052415994499,0.01059913719184641,0.013246175402688895,0.02669062040145921,0.037493702933873094,0.0675166327683227,0.11460812587571084,0.023853029309371793,0.028975185113447297,0.2944835254940704,0.04418075943812554
0.0750817445724842,0.03720209735158745,0.13014038964365782,0.3580203821711346,0.2476964528387783,0.19313443693656465,0.01126964340634195,0.01343262722422435,0.027686540567563298,0.03795370123616525,0.06625330495875334,0.11501108934050724,0.02357560100368849,0.029236464069406626,0.29289073318185266,0.04349870834340181
0.07639233520246745,0.035331046013736704,0.1257910779539118,0.3528303702362528,0.25114029118787756,0.19566436715901625,0.011964075715199666,0.013625038996036608,0.028744073995796125,0.03842791251383026,0.0650516300773342,0.1153931608218124,0.02333767750125516,0.0295499503313788,0.29138273735886583,0.04287869942001216
0.07779344230311545,0.033530067000041595,0.12152439722285066,0.3475754230004617,0.25456785694251105,0.19817679977470617,0.01268261043291686,0.013823294028298305,0.02986498166167713,0.03891632650479282,0.06391125338054104,0.11575409460170547,0.02313753601317949,0.0299136607248869,0.2899620593776594,0.04231994209939015
0.07928361939556337,0.03179812837798433,0.1173414933742726,0.3422598140647958,0.2579740423593448,0.2006685299478973,0.013425407009670513,0.01402724866820228,0.031050977040423564,0.03941901564623998,0.06283173688105949,0.11609368853033425,0.022973429390127708,0.030325614908620038,0.28863088603455156,0.041821562004479576
0.08086132203662338,0.030134175092293467,0.11324340120187933,0.3368874734992234,0.26135347176836327,0.20313666167202232,0.014192612397992969,0.014236732791897662,0.032303728649463716,0.03993612849249907,0.06181254228974391,0.11641169127522306,0.022843578617012247,0.030783833063646553,0.2873911730098355,0.04138260357010815
0.08252489348157269,0.02853712706095367,0.10923103460205462,0.3314621746517262,0.2647003989645238,0.20557857029387677,0.014984366424032922,0.014451551352652465,0.03362486705341229,0.04046787832807447,0.060853022644009123,0.11670772346443632,0.022746178232473813,0.03128632943705081,0.2862447319004497,0.04100203314306267
0.0842725472584341,0.027005876930261578,0.10530517616964705,0.3259877018779497,0.26800867560095315,0.2079918263090032,0.01580080743253544,0.014671486952621198,0.03501599105007215,0.041014527323751576,0.05995242898386047,0.11698125024969229,0.022679411200402604,0.03183110176378884,0.2851932985413902,0.04067874186891038
0.08610235140767604,0.02553928734626841,0.10146646677948395,0.32046798378610125,0.27127182620113,0.21037408032047789,0.016642077961791155,0.014896303176748298,0.03647867114558449,0.04157636669529314,0.059109926852675236,0.11723162068902401,0.022641466155771322,0.032416117179912204,0.2842385809719002,0.04041154767629401
0.08801222363241794,0.024136187602173755,0.09771539555083336,0.3149071881124698,0.274483192994506,0.21272291447629135,0.01750833013057201,0.015125748364415971,0.03801445008397228,0.042153693423540556,0.05832461293092895,0.11745814363065146,0.022630553589503322,0.03303929852783937,0.28338228609238136,0.04019919574139401
0.089999942092324,0.022795369742245608,0.09405229039192152,0.309309775921559,0.2776360963004276,0.21503569843925235,0.018399730356046192,0.015359559457054833,0.03962484038499265,0.04274678418981434,0.05759552706005004,0.11766016378881704,0.022644920225474055,0.03369851958587946,0.2826261247587443,0.04004035723743653
0.09206316653654296,0.021515585559898912,0.09047730959826711,0.303680514514833,0.2807239871452566,0.21730953730248553,0.01931646297817903,0.015597465509958846,0.0413113190359138,0.0433558697742523,0.0569216587051441,0.11783712563857925,0.0226828612067386,0.03439161430425878,0.281971795754303,0.039933627767350856
0.09419946239707247,0.020295547706848844,0.08699043711683793,0.29802445018856666,0.2837405837555549,0.219541364569142,0.020258732349168303,0.01583919043235891,0.04307531966288892,0.04398111926582085,0.05630194772889185,0.11798862404082405,0.022742729753249744,0.03511639516016094,0.28142094974771853,0.039877528709058155
0.09640632456084133,0.019133936625220005,0.08359148630054371,0.29234684374300646,0.28667998349494217,0.22172812743301543,0.02122676296123818,0.01608445452557261,0.04491822266055248,0.04462264281558588,0.055735279715883664,0.11811444120451495,0.022822943995342678,0.03587067313614888,0.28097513497188004,0.03987051360672235
0.09868119931355314,0.01802941113338335,0.0802801136967562,0.28665307333066375,0.28953674221381087,0.2238669832072494,0.022220797235849177,0.016332974427368727,0.04684134386987605,0.04528050991948904,0.055220476397394316,0.11821457013233977,0.022921990725613538,0.03665227601631122,0.2806357269266951,0.039910978545678516
0.10102150275501566,0.016980619682307574,0.07705583837899137,0.2809485107416908,0.2923059139054693,0.22595547157678583,0.023241090683286655,0.01658446114200474,0.04884592277539257,0.04595477274327377,0.05475628222553652,0.11828922505700419,0.023038425849104347,0.03745906380498458,0.280403844903572,0.0399972743879115
0.10342463385699441,0.015986211065826216,0.07391806192256056,0.27523837845058835,0.2949830450269209,0.22799165149797745,0.024287904262889085,0.016838615937702313,0.050933112374880164,0.046645487693316126,0.054341351189840445,0.11833883956945725,0.02317087135331091,0.03828894013054534,0.2802802585380272,0.04012771962901326
0.10588798029309092,0.015044844199884964,0.07086608742060638,0.26952760470914155,0.2975641198267906,0.2299741936524778,0.025361493927787762,0.0170951240222934,0.0531039733795785,0.04735273318645522,0.05397424247344344,0.11836405320635605,0.023318008672416526,0.03913985861962563,0.2802652991366806,0.04030061301997465
0.10840891523794072,0.014155196589543985,0.06789913728880564,0.263820722468422,0.3000454554592295,0.23190242221287466,0.026462097517631084,0.017353647476036883,0.05535947287923357,0.04807662281830161,0.053653429803615496,0.11836568725851773,0.0234785683911799,0.04000982341559902,0.280358814246693,0.040514244976429505
0.11098478353044659,0.013315971137080634,0.06501636954056655,0.2581218657954881,0.3024235484309444,0.23377630306149563,0.027589920978467453,0.01761382210236733,0.05770048454833041,0.048817313341640724,0.05337731879433239,0.11834471054471438,0.023651316328410294,0.04089688326550269,0.28056019380654823,0.04076690672743914
0.11361287593922702,0.012525901007023265,0.062216892178979126,0.2524348619041475,0.304694876857671,0.2355963792313131,0.028745129761682173,0.017875262014782355,0.06012778777291543,0.04957500714480673,0.05314426385739862,0.11830219591576528,0.023835036160882648,0.04179911890280995,0.28086844644561704,0.041056896147556574
0.11629039076781156,0.011783752349161247,0.05949977535158184,0.24676335950747488,0.3068556871146744,0.23736365789504071,0.029927850577420194,0.018137570117808432,0.06264206502481413,0.05034994924879407,0.05295258084097109,0.11823926834327203,0.02402850913496305,0.0427146237951887,0.2812822849720544,0.04138251928074465
0.11901438718445631,0.01108832478163932,0.056864060949407144,0.24111094354639534,0.3089018523964901,0.23907945641203238,0.031138181461585368,0.018400350310447327,0.06524389765857067,0.05114241919281319,0.052800553940334234,0.11815704561374675,0.024230495134306206,0.04364147868699362,0.2818002010913838,0.041742086711131415
0.12178174967827209,0.010438449645239423,0.054308769399393796,0.2354812213425779,0.3108288977700255,0.24074521748859498,0.032376204146002924,0.018663219262801314,0.06793376044469293,0.051952718510988864,0.05268643565393113,0.11805657287972356,0.024439725491473333,0.04457772398667506,0.2824205245633719,0.04213390416720947
0.12458919052341921,0.009832986148670201,0.051832903492734665,0.2298778787896663,0.3126321825480197,0.242362306856592,0.033641995078565017,0.018925816862005018,0.07071201525070117,0.052781154773691205,0.052608438930946244,0.11793875904644523,0.0246549140294022,0.045521342439555475,0.28314146417637615,0.04255625705961383
0.12743329611610782,0.009270815625312415,0.04943544920245581,0.2243047070782765,0.31430714479156885,0.24393183300193866,0.03493563386782269,0.019187814459761487,0.0735789043313681,0.05362802333781016,0.05256472131998365,0.1178043389221845,0.024874779930130972,0.046470264557984066,0.28396112848245597,0.0430073904802571
0.1303105974194006,0.008750834207590263,0.047115373561737235,0.21876560215715443,0.31584953461795656,0.24545456745543376,0.03625720852047751,0.019448920103354753,0.07653454368970614,0.05449358799920583,0.05255336634375884,0.1176538839042283,0.02509807260855437,0.0474223945236106,0.2848775248911205,0.04348549237334056
