EMG01_right_gast_med,EMG02_right_glut_max,EMG03_left_gast_med,EMG04_left_glut_max,EMG05_right_glut_med,EMG06_right_bic_fem,EMG07_right_rect_fem,EMG08_right_vast_lat,EMG09_right_vast_med,EMG10_right_tens_fasc_lat,EMG11_left_glut_med,EMG12_left_bic_fem,EMG13_left_rect_fem,EMG14_left_vast_lat,EMG15_left_vast_med,EMG16_left_tens_fasc_lat
0.0003877485389756424,-0.02104871983896965,0.016134169210593907,0.012571213584040378,0.0040930582119757895,-0.0065970562811191145,0.04341076520712234,0.009463755510916324,0.011775417306294611,-0.013590670798306321,-0.01508211885469632,0.09634167282631194,-0.0033976521242922294,-0.057254762855467135,0.05135189333677393,0.006372342834767242
0.000400528512954897,-0.019798130758677403,0.027175062505430832,0.013585918044464523,0.005392647667941201,-0.004547550800920736,0.046307988855531085,0.012540792920103266,0.013877208798321715,-0.010444754884104504,-0.012980520622154223,0.10160946958193526,-0.0028056075509805215,-0.05104852334827595,0.05277603419703267,0.007770219165022759
0.0004128229878548226,-0.01855869829940024,0.03817540254074626,0.014588118188999605,0.006678697688457408,-0.002483666421719728,0.04927290340523985,0.015631708106637998,0.016042147674930247,-0.007323585218567599,-0.010883086583685015,0.10691514353299607,-0.002218081642360292,-0.04488969766488344,0.05417605302688628,0.009156847542142212
0.00042458381669352994,-0.017332482977501767,0.049123330525351325,0.015574368565314408,0.007949127308021595,-0.0004067172473499912,0.05230560803841235,0.018733316016982287,0.018271048541426242,-0.004231773946379878,-0.008792811623787358,0.11225407079760467,-0.0016358578588159351,-0.03878683023933591,0.05554890278577522,0.010530364514252837
0.0004357637295364029,-0.01612139066938624,0.06000702162685444,0.016541545386143462,0.009201918934525986,0.0016820476791878035,0.05540613422159202,0.021842524640217974,0.020564716338640363,-0.0011737507259762762,-0.006712491088321366,0.11762150084435347,-0.0010596712841205065,-0.03274812628720576,0.05689180511622304,0.01188894056681787
0.00044631681152233104,-0.014927136600401335,0.07081475627194758,0.017486922301483087,0.010435154547200091,0.0037814379772806352,0.058574429528591085,0.024956378276533155,0.022923934901543857,0.0018463057517229273,-0.0046446610956152965,0.12301257233175858,-0.000490183539245033,-0.026781357911846666,0.0582023139551106,0.013230809237180483
0.00045619872639323115,-0.013751222920903847,0.08153506267099739,0.018408183295379486,0.011647047071110878,0.005890301195520575,0.06181034527775034,0.02807209217158214,0.025349459509524885,0.004824524156246099,-0.002591559793894247,0.12842233493379954,7.204055180106236e-05,-0.02089377635260376,0.05947835571412193,0.01455429578970248
0.0004653667051309378,-0.01259492828837473,0.09215688618282858,0.01930338839435564,0.012835962136126866,0.008007509231995467,0.0651136354726561,0.031187075515727202,0.02784202078948279,0.007757380168754676,-0.0005551101240138014,0.13384577318459207,0.0006265497213731738,-0.015092035382556573,0.0607182470508742,0.01585784044252239
0.0004737793289357064,-0.011459308093128442,0.1026697611280928,0.02017090556891471,0.01400042996766106,0.010131969358737844,0.06848396913836244,0.03429894013904956,0.03040233774980899,0.01064171953530345,0.0014630767451632787,0.13927782809897496,0.0011730155754500768,-0.009382130606869765,0.061920691500279665,0.017140016315038746
0.00048139614673810527,-0.010345203897637054,0.1130639702331318,0.02100932128391808,0.015139147441000221,0.012262654758083793,0.07192095162007751,0.037405492919025875,0.033031133048150946,0.013474764774034502,0.0034616787961676697,0.14471341204197236,0.0017112341712432644,-0.003769358833041939,0.0630847566993947,0.018399542184841307
0.0004881771754025027,-0.009253260581708216,0.12333067550844523,0.02181734582827952,0.01625097062021899,0.014398637699521632,0.07542415017635583,0.04050471087881974,0.03572914640759216,0.01625410594613628,0.0054396236169506305,0.1501474123064923,0.0022411201369243565,0.0017416992955151607,0.06420983435008881,0.019635290080091974
0.0004940823672584004,-0.008183949793287345,0.13346200461902052,0.022593742161928908,0.017334898310402115,0.016539114929217637,0.07899312131707487,0.04359469908227524,0.038497144314151584,0.018977675904968017,0.00739603475947535,0.15557467931458607,0.002762694159922888,0.007147171584261551,0.06529558524141629,0.020846287602304617
0.0004990712247953991,-0.007137598306874319,0.1434510784582126,0.02333730960613908,0.01839004741792644,0.018683421342860447,0.08262743767163756,0.046673632634156755,0.04133592453480345,0.021643710647285683,0.009330167487156104,0.16098999609442396,0.0032760651219631187,0.012443861149768023,0.06634187188501865,0.02203171483020545
0.0005031027450451005,-0.006114419823593803,0.15329196890090563,0.024046921482603557,0.019415621224698712,0.020831029971684845,0.08632671169957577,0.04973969385805413,0.044246314407929754,0.024250695791592725,0.011241345896066672,0.1663880267210598,0.003781408473641009,0.01762918896363678,0.06734868158663075,0.023190895694429378
0.0005061356620610403,-0.005114548746067808,0.1629795807187439,0.024721582009240985,0.020410871968534153,0.02298153769005505,0.0900906132556375,0.05279103589065656,0.04722916241768802,0.026797300658783628,0.013128929337098512,0.17176324856334185,0.004278942592489113,0.022701114525183162,0.06831604296881048,0.02432328378015781
0.0005081287684224635,-0.0041380707778298055,0.1725094578365138,0.025360473184339188,0.021375064087087333,0.025134637352150775,0.09391887796831525,0.05582579950590981,0.05028532318760676,0.02928230265556812,0.014992326548304298,0.17710989561744292,0.004768906848046199,0.027658038207658674,0.06924394904388902,0.025428442649055433
0.0005090411445286864,-0.0031850382593919496,0.18187752077185693,0.0259629836913088,0.022307454515506777,0.027290078124692543,0.0978113036389619,0.05884217199187097,0.05341563663678715,0.031704516741958975,0.016831039793750942,0.18242195596030325,0.005251548928545646,0.03249868959202438,0.07013231956568844,0.026506020982654366
0.0005088322451579427,-0.0022554633865669404,0.19107978412287469,0.026528720265777603,0.023207302196205842,0.02944762234829509,0.10176773243559178,0.061838457250664336,0.056620902585612067,0.034062764484522966,0.01864470930611359,0.18769323845861846,0.005727126191818168,0.03722200654360118,0.07098102358810407,0.02755572309580579
0.0005074618401153686,-0.0013492988085933462,0.20011218822401974,0.027057502962339285,0.024073898084514617,0.031607020265117344,0.10578801753357052,0.06481313897905029,0.05990185327242424,0.03635590312709338,0.020433144443372,0.19291748116740193,0.006195915884803512,0.04182702017615655,0.07178993968322006,0.02857727563037865
0.0005048898173613016,-0.0004664187930920147,0.20897066034914621,0.0275493464286191,0.024906598667865983,0.03376801991142498,0.10987197399737973,0.06776493063673796,0.06325912965262595,0.03858289140424259,0.02219633855533147,0.19808846889689777,0.0066582256229734665,0.04631278400423032,0.07255901868236814,0.029570395222767432
0.0005010758729268674,0.00039339421112437453,0.21765135618023496,0.028004429741453517,0.025704854662117926,0.0359304035441765,0.11401931874402343,0.07069280836243362,0.06669326936642377,0.04074285792903236,0.02393446645662342,0.20320014431715586,0.007114400268447201,0.05067837905384138,0.07328833432599319,0.030534770249212896
0.0004959791892292317,0.001230457153805807,0.22615094290360235,0.028423057639484516,0.026468232858178502,0.038094029517571154,0.11822961982801701,0.07359602388832008,0.07020470757409317,0.04283515830040293,0.025647864748269876,0.20824670366276224,0.0075648248975278,0.054922977647172654,0.07397811908448264,0.031470067103427264
0.0004895583181449255,0.002045188045857598,0.23446684048036556,0.028805616057778823,0.02719643012994627,0.04025886779984109,0.12250228575321982,0.07647409560967036,0.07379378261571307,0.04485941761923047,0.02733699662118815,0.21322266799857326,0.008009924249489235,0.059045922502834254,0.07462878361124575,0.032375954746308507
0.00048177139704279245,0.0028381020252633733,0.24259739510208805,0.029152525094593745,0.027889279017629658,0.04242502547877972,0.1268366036764643,0.07932677723624276,0.07746073868985485,0.04681555591012672,0.029002404084742545,0.2181229215531388,0.008450159228509868,0.0630467963978031,0.07524091910430342,0.03325213360138042
0.0004725765647506281,0.003609802494000161,0.2505419738622107,0.029464197889738482,0.028546744694934876,0.04459276033266139,0.1312318027061982,0.08215400481558001,0.08120572336299259,0.048703794946285746,0.03064465636068289,0.22294270989037654,0.008886021141626763,0.06692547689424248,0.07581528273506129,0.03409836143561478
0.0004619323744539,0.004360968276876982,0.25830097534930674,0.02974102239514062,0.029168913496388064,0.04676248122288243,0.1356871158919371,0.0849558242885387,0.08502878036315223,0.05052464608265971,0.032264315072512796,0.22767759270006274,0.00931802439822549,0.07068217514662717,0.07635276719568551,0.03491447444354453
0.00044979811499918477,0.005092337952063595,0.26587575653940887,0.02998337422308495,0.029755973516102437,0.048934734801455944,0.14020182958305158,0.0877323039149458,0.08892983862387017,0.0522788798291288,0.03386193457197857,0.23232334869778742,0.009746698374489327,0.07431745840094629,0.07685435626432448,0.0357004028535722
0.00043613401523816817,0.005804692608246624,0.27326848161129436,0.03019164651193043,0.03030818809493518,0.051110178791915595,0.14477531569012356,0.09048345088316465,0.09290869891435757,0.05396747895489218,0.03543809052768534,0.23687583339257406,0.01017257906702575,0.077832256317326,0.07732106904024401,0.0364561806795316
0.00042090131489643754,0.006498838290968664,0.280481902807263,0.030366278912397775,0.03082586329408068,0.053289542869174,0.14940704356119935,0.0932091748031131,0.09696501958354532,0.055591577827344044,0.036993413434606305,0.2413308039060085,0.010596201036553817,0.08122785169406387,0.07775389736722664,0.037181949535958686
0.0004040621950329604,0.00717559004548337,0.2875190869925536,0.030507779636763502,0.031309312373279594,0.055473578902631174,0.1540965696482713,0.09590932272244841,0.10109830294931137,0.057152391385870575,0.03852861150547257,0.2456837700507543,0.011018089993563872,0.08450585655700117,0.07815375094468838,0.0378779566980869
0.00038557957070234946,0.007835761002726977,0.2943831136724723,0.03061674031880436,0.031758827314810896,0.05766300903010723,0.1588435047379747,0.09858375692999545,0.10530788369325292,0.058651142564650684,0.040044478734584686,0.249929967213445,0.011438756620605254,0.08766817491619362,0.07852143677647548,0.0385445477987538
0.0003654167572840235,0.008480159051549868,0.301076820703869,0.030693843778642746,0.03217467258770333,0.05985849418423396,0.16364746009582168,0.10123243381883391,0.1095929203097161,0.060089011164244054,0.04154188796036178,0.25406448429620515,0.011858692875365643,0.09071695379049943,0.07885768445329243,0.03918215470151092
0.00034353708385449023,0.009109588922453673,0.3076027203903907,0.030739865082504543,0.03255710518293596,0.06206064242311533,0.16850797527814096,0.10385546699419566,0.11395239025243248,0.06146712920694067,0.04302177020963612,0.25808247562910863,0.012278371427793271,0.09365452436079669,0.07916319580647493,0.0397912791672004
0.0003199036697579058,0.009724854743161643,0.3139631263750041,0.030755666527375686,0.03290640788956255,0.06427004841331913,0.17342443221003662,0.1064531709161176,0.11838508897400418,0.0627866200951097,0.04448508287569378,0.26197937392550635,0.012698247017019836,0.09648333532524538,0.07943869232717447,0.04037247294516057
0.0002944795855644315,0.010326760178173744,0.32016038711751293,0.030742187362050446,0.033222921865281876,0.06648734013000467,0.1783959732819173,0.10902608266563571,0.12288963260977333,0.06404865388632221,0.045932771267023165,0.26575106967422263,0.013118758004591093,0.09920588067873061,0.0796849505794265,0.04092631488570458
0.0002672283684767746,0.010916105918778469,0.3261971080031652,0.030700429180714577,0.03350707325333984,0.06871321822569973,0.18342146206610221,0.11157496085381338,0.1274644636565259,0.065254496876764,0.047365734255745716,0.26939404468356365,0.01354032741498656,0.10182462420512632,0.07990282413749855,0.041453385611377014
0.00023811467621931507,0.0114936851607607,0.3320763191391379,0.030631437996248418,0.03375939238331532,0.07094848334653987,0.18849950879823799,0.11410076215695293,0.13210785866512315,0.06640554894523705,0.048784809990689196,0.27290545030324864,0.013963363387061598,0.10434192870570419,0.08009325146470539,0.0419542402278248
0.00020710492082519683,0.012060278020766615,0.3378015804427955,0.03053628402220248,0.033980524446807506,0.07319404919219169,0.19362853444647704,0.1166045973671798,0.13681793672096298,0.06750336754945284,0.0501907863424589,0.276283124275295,0.01438825897933555,0.10676001155895576,0.0802572500181073,0.042429383126281
0.00017416782190971358,0.0126166465470859,0.3433770189351477,0.030416040170772547,0.0341712309830562,0.07545094007158679,0.1988068356229178,0.11908767010945408,0.14159266733457435,0.06854967800195054,0.05158442175782233,0.2795255439399772,0.014815391201961094,0.10908094582100637,0.0803958976410122,0.04287925625871916
0.00013927484644809697,0.013163532181611209,0.3488072967711492,0.030271760251690993,0.034332382025180574,0.07772027278746807,0.20403263532472823,0.12155120241324782,0.1464298763065954,0.06954637035818693,0.052966460815513296,0.28263171738101434,0.01524511909831374,0.11130669818292241,0.08051030293687055,0.043304248859981326
0.0001024005061728534,0.013701655762179205,0.35409751233873804,0.030104460145012318,0.034464939312858364,0.08000322378753741,0.2093041161995146,0.12399635206631945,0.15132724816068055,0.07049548388641204,0.0543376393977599,0.2856010177792214,0.01567778068760338,0.11343917834152889,0.080601566768854,0.043704721777685245
6.352248983038997e-05,0.014231718045379644,0.3592530405550669,0.02991510938125438,0.03456993152820075,0.08230098354255594,0.21461943382232565,0.12642413446851575,0.1562823238435099,0.07139918062268072,0.05569867974711219,0.2884329695246307,0.016113689231470975,0.11548028426784836,0.08067073728815696,0.044081034979618815
2.2621615602740505e-05,0.014754398892545009,0.36427932205208097,0.029704637040156787,0.03464842300922054,0.08461470096095046,0.21997670834216662,0.12883537674774193,0.16129249255885433,0.0722597099167616,0.05705027675205638,0.29112700644473544,0.01655313089874032,0.11743193976425034,0.08071876601688947,0.04443357345749506
-2.0318401323819447e-05,0.015270354898443698,0.36918161403517735,0.02947394573065919,0.034701478854168244,0.08694542865478365,0.22537399378981518,0.13123072267745897,0.16635497681746358,0.07307936612974522,0.05839307765562661,0.2936822687340347,0.01699636609421547,0.11929612368680097,0.08074648349041802,0.044762770377940624
-6.53113602941836e-05,0.01578021692864417,0.37396475057791806,0.029223925469407885,0.034730135397643046,0.08929409459908667,0.2308092253269324,0.1336106704173658,0.17146681003279762,0.07386044175047826,0.05972765810820388,0.29609754681971756,0.017443634294606415,0.12107489040585623,0.08075460910856463,0.04506912638301373
-0.00011236914885381504,0.01628458986345098,0.37863302403824295,0.028955464695413623,0.03473539096032989,0.09166151653879569,0.23628014575008366,0.1359756111852753,0.1766248062638027,0.07460517816761184,0.06105449998118504,0.29837140926882516,0.01789516044737171,0.12277038124730376,0.08074378661832303,0.04535322395973523
-0.0001615023529373591,0.016784055445700777,0.383190256203961,0.02866945832935622,0.03471822210658674,0.09404844259318108,0.24178421574945014,0.13832585359625257,0.1818255219925444,0.07531572159353608,0.06237397909509244,0.3005024269683886,0.018351161394910026,0.12438482681287338,0.08071462570226583,0.0456157359069662
-0.0002127205471946301,0.017279176935680672,0.3876399815431985,0.028366812901495276,0.03467961286720763,0.09645559182431689,0.2473185298918606,0.140661631635664,0.18706521460744593,0.07599410173436492,0.06368636535817306,0.30248939315381557,0.01881185146770654,0.12592054023415783,0.08066773922096579,0.045857427129087275
-0.00026603195397931716,0.017770503912731796,0.39198562469726395,0.028048448874147012,0.03462058247645839,0.09888368354171782,0.25287978341091183,0.14298309735096998,0.19233981395834776,0.07664224347585775,0.06499182721400662,0.30433150198115955,0.019277446542907962,0.12737990158000947,0.08060377369559162,0.046079149268897786
-0.0003214425956638767,0.018258576348842422,0.3962306232191541,0.02771530037167433,0.03454220642323907,0.10133345279227138,0.2584643139925591,0.14529030060160428,0.19764492452276528,0.0772619983152062,0.06629043136609188,0.30602847736030975,0.019748165938175143,0.12876533381265157,0.08052343220666092,0.04628182803863651
-0.00037895530075293324,0.018743927480277856,0.40037848572084317,0.027368312601890096,0.034445629973165824,0.10380565056160031,0.26406818910277896,0.14758315922961013,0.20297585699462428,0.07785517688128646,0.06758213574570289,0.30758064642045785,0.020224231655957037,0.1300792708700904,0.08042748916605846,0.04646644349495317
-0.00043856877960268717,0.019227085122453125,0.4044327809800341,0.02700843730713087,0.03433207376452192,0.10630102820791858,0.26968729703227556,0.14986142373638414,0.20832767440045483,0.07842357597639735,0.06886678036720564,0.3089889547943684,0.02070586469103321,0.1313241186333667,0.08031679670059498,0.04663400390518364
-0.000500276840618944,0.01970857122962948,0.40839705883133803,0.026636626620940795,0.03420283151326927,0.10882030673629786,0.27531742339490706,0.15212464092927336,0.21369524225175804,0.07896899982938832,0.07014408499407492,0.31025492376736424,0.02119327834047165,0.13250220970731175,0.08019228266756973,0.046785514240644345
-0.0005640677857186471,0.020188899682184576,0.41227470916392983,0.026253825727618307,0.03405926026603474,0.11136413261733967,0.2809543065168236,0.1543721210136437,0.21907327912940233,0.07949327552802898,0.07141365850173918,0.3113805521294065,0.021686668687701017,0.13361575309392923,0.08005494060096874,0.04692194328439221
-0.000629924014745544,0.02066857247160749,0.4160687705272708,0.02586096472730864,0.03390276400439489,0.11393302626643657,0.2865936658000366,0.156602912246839,0.2244564056232211,0.07999826270204094,0.07267501528500608,0.31236816818147733,0.022186204263657357,0.13466678254680542,0.07990581215093837,0.04704420092357913
-0.0006978218581044448,0.02114807462397952,0.4197817317557164,0.025458950099572566,0.0337347717176352,0.11652734114994005,0.2922311982385142,0.15881578655299433,0.22983918939379824,0.08048585755313593,0.07392759132115069,0.3132202396668676,0.022692020515581716,0.1356571171495903,0.07974596281691308,0.0471531385466488
-0.0007677316455365668,0.021627868333450175,0.42341542758204415,0.025048656134655546,0.03355671131238465,0.1191472563586917,0.29786253979250116,0.16100923845454296,0.23521618402773417,0.0809579913053036,0.07517075580741002,0.31393915131596434,0.023204223599005213,0.1365883539318361,0.0795764519755945,0.047249571546697594
-0.0008396180070925247,0.022108386850155204,0.4269710964486518,0.024630917381811133,0.03336998367963061,0.12179280525024233,0.30348319023666104,0.16318149836210907,0.2405819593293438,0.08141662311584773,0.07640381627030843,0.3145269863477999,0.023722901092434946,0.13746189678673806,0.07939829836216887,0.047334310220233496
-0.0009134403904515257,0.022590028672955956,0.4304495410767324,0.024206524680699143,0.03317594759122824,0.12446391905738063,0.3090884022988424,0.16533055975641678,0.24593112073416667,0.08186372748062136,0.07762601559630154,0.314985404352927,0.024248134208964982,0.13827900429315826,0.07921244227483103,0.047408188013557
-0.00098915376739246,0.02307315256059704,0.43385128857246463,0.023776226692039115,0.03297592427084186,0.12716046545008547,0.3146730519508439,0.16745421819259998,0.25125831564393664,0.08230127621013165,0.07883652011901339,0.31531568924241954,0.024780008625657643,0.13904083896056527,0.07901971076275942,0.047472083435493216
-0.0010667094268727428,0.023558073780428637,0.4371767028810495,0.02334073535920648,0.0327712170184732,0.1298822744624589,0.3202315469705983,0.16955011847814544,0.256558224669069,0.08273121515786588,0.08003439865314357,0.31551892383954167,0.02531862298834288,0.13974851175055078,0.07882080181299557,0.04752693460908323
-0.0011460555277153501,0.024045061759097673,0.44042604053706014,0.02290073212972944,0.03256313396661265,0.13262914943330048,0.32575784037537514,0.17161580495839202,0.2618255360240766,0.08315543604718273,0.08121859803825736,0.31559619128261973,0.025864094510554995,0.1404031201638339,0.0786162979632538,0.047573745885751334
-0.0012271369785041176,0.02453433902332891,0.4435994483195737,0.02245687328296046,0.0323530068596428,0.13540086159462567,0.33124555016273394,0.17364876873839633,0.26705490165508217,0.08357574395646684,0.08238793178301695,0.3155487481522437,0.026416561318885874,0.14100577815839785,0.07840669873567115,0.04761358643484804
-0.001309894582815887,0.025026081276483772,0.4466969059975482,0.0220097940999916,0.03214220388380936,0.13819712798768208,0.33668812622826505,0.17564648502759234,0.27224087408833664,0.08399382518685079,0.08354109508929451,0.31537815495286986,0.026976181454114262,0.1415576362177534,0.07819245534616745,0.04764758121543467
-0.001394263836365682,0.025520418430486393,0.44971812073366163,0.02156011191585119,0.03193213590308314,0.14101757342133756,0.3420790142676168,0.17760643374533872,0.2773778234759573,0.0844112293473106,0.08467669952579036,0.31508635839586197,0.027543128685907317,0.1420598900557834,0.07797400107425015,0.047676895201578175
-0.0014801737457497085,0.02601743618728032,0.45266238167187633,0.021108428130540223,0.031724255824011595,0.14386167814673312,0.34741179615650075,0.17952609715957477,0.28245983488223114,0.08482937761541609,0.085793312616826,0.31467572232107804,0.028117585510593162,0.14251377675140597,0.0777517761565757,0.04770271213429934
-0.0015675458071288109,0.02651717758843566,0.45552839385308214,0.020655329280872662,0.03152005120170896,0.1467287215090513,0.35268029633363784,0.181402929670354,0.2874806007330239,0.08524959175131881,0.08688949492563863,0.3141490065818099,0.02869973385785395,0.14292055755748456,0.07752624643128471,0.04772620938169121
-0.00165629319248534,0.027019643948364997,0.4583141472119888,0.020201387289317422,0.03132103059231787,0.14961774964581018,0.35787864519368157,0.18323429683782025,0.2924333581982173,0.08567312932108648,0.08796383176730262,0.31350929569619923,0.0292897441255277,0.1432814872068461,0.07729791523309439,0.04774853067641332
-0.0017463201831384846,0.027524794638743504,0.46101689947697416,0.01974715901020947,0.03112870453791904,0.1525275909171144,0.3630012925667603,0.1850173912700357,0.29731092026877876,0.08610121669241547,0.08901495702023211,0.3127598814407522,0.02988776319364167,0.14359777020764164,0.07706732836481972,0.0477707605702214
-0.001837521879657316,0.028032545271544432,0.46363329294368294,0.019293185189935634,0.030944563853938754,0.15545690880941698,0.3680429668998002,0.1867491640183068,0.3021057902575756,0.08653507721147534,0.09004156684303119,0.3119041057398748,0.030493902047382886,0.1438705053315489,0.07683507233308763,0.04779390881302961
-0.0019297842042263144,0.028542764282114563,0.4661595428806014,0.01883998894880542,0.030770062979631627,0.15840426523452728,0.3729985786176614,0.18842633016405788,0.30681031306800793,0.08697595307999705,0.09104242155611779,0.3109451721050628,0.031108224572094282,0.14410062386635833,0.07660176640887192,0.047818910824816804
-0.0020229841962254255,0.02905526953103533,0.46859163246631286,0.018388073881240728,0.030606618416546324,0.16136817889161043,0.3778630691658651,0.19004546660011273,0.31141683372456175,0.0874251195850544,0.09201633449470767,0.30988595665111673,0.03173074099678637,0.14428884143802254,0.0763680494245426,0.047846639667562446
-0.002116990584980321,0.02956982819580094,0.4709254887722025,0.017937921860300052,0.030455623401437065,0.1643471736465863,0.38263121024876084,0.19160316097692565,0.3159178530332262,0.08788389053344232,0.09296214726727593,0.30872889904893874,0.03236140819699473,0.14443565225035201,0.07613456251240297,0.047877919473903456
-0.002211664606382426,0.03008616184610598,0.473157129355519,0.017489990624373668,0.0303184692351171,0.16733981365944176,0.38729738546567505,0.1930961652951599,0.32030617346439944,0.0883536140189481,0.09387869155299107,0.30747604171483156,0.033000134395060075,0.14454137255978697,0.07590192919046694,0.0479135347833165
-0.0023068609475109083,0.030603955397459453,0.4752827683446703,0.017044711219271903,0.030196564123194276,0.1703447223821742,0.3918554516487727,0.19452153217734225,0.3245750277603439,0.08883565801361662,0.09476473833236256,0.30612918478451306,0.033646784264971086,0.14460620917418612,0.07567073428206714,0.0479542349746264
-0.0024024284471979105,0.031122867795191616,0.47729887116453595,0.016602485496580013,0.03009134614699242,0.1733605830611922,0.3962987793493328,0.1958767223962185,0.3287181825092812,0.08933138572604467,0.09561894544199818,0.3046900688919862,0.03430118273644931,0.1446303278529523,0.07544150310282542,0.04800073431524416
-0.0024982100302215348,0.0316425433212536,0.47920214859014953,0.0161636844141718,0.030004289485456494,0.17638611903091855,0.40062045679598757,0.1971596736715097,0.3327300090816653,0.08984212120321208,0.09643983396753679,0.3031605328523462,0.03496311739404248,0.1446139120212566,0.07521468216523353,0.04805370845427414
-0.0025940417719181384,0.03216262287775542,0.48098948369931177,0.015728648299947617,0.02993690353004558,0.17942005289582943,0.40481355715788686,0.19836882306419232,0.33660551494613816,0.0903691066785067,0.09722581605148349,0.3015426310046851,0.03563233964571145,0.14455720870524771,0.07499062235893621,0.048113788402764764
-0.0026897515601664386,0.03268275453827804,0.4826577893169832,0.015297689337795118,0.029890725077535558,0.18246104466478577,0.4088713969386334,0.1995030783232662,0.3403403294922421,0.09091346136709781,0.09797525849861098,0.29983870451336486,0.036308564919257755,0.1444605591223371,0.074769565198526,0.04818155315962097
-0.0027851578296705258,0.033202602616953715,0.48420379829730453,0.014871095159476832,0.02986730429813463,0.18550760999753163,0.4127877597471919,0.20056173703497931,0.3439306400666965,0.09147616484375466,0.09868655314415128,0.29805140352259885,0.03699147220764829,0.1443244120186459,0.07455163233150532,0.04825752215358087
-0.002880068549162532,0.033721854489897604,0.4856238099729471,0.014449132399705009,0.029868185614176965,0.18855803298348,0.41655707275530396,0.20154435610947627,0.34737307592990607,0.09205807928431307,0.09935818052400171,0.2961836598462688,0.03768070331917873,0.14414931859932856,0.07433681810811604,0.04834214858520093
-0.0029742805136560822,0.03424022442184214,0.4869134831006284,0.01403204983031041,0.029894887262085088,0.19161031661215852,0.4201745249629549,0.20245057772144504,0.3506645401806522,0.09265999584081511,0.09998876254463512,0.2942386126643043,0.03837586219084,0.14393590871322479,0.0741249846682459,0.04843581457869387
-0.0030675789735158322,0.034757453713173465,0.4880678133162098,0.013620081007073579,0.029948888831966322,0.1946622096347761,0.42363611877571783,0.20327994416181422,0.35380199227634057,0.09328268246390872,0.10057710057093715,0.2922194922963654,0.039076514591719375,0.1436848488037757,0.07391585872766827,0.048538828806125776
-0.00315973760882818,0.03527330659892485,0.48908133647601554,0.013213446378307946,0.030031634851943073,0.1977112961536718,0.426938649268627,0.20403178970731695,0.3567821987618878,0.09392692325907555,0.10112219610287926,0.29012946935643186,0.03978218847970294,0.14339678300213315,0.07370902906691786,0.048651426943630595
-0.0032505188334277266,0.0357875615077528,0.4899484514975906,0.012812354823688648,0.03014455113330608,0.20075510553700635,0.4300796087739155,0.20470528727589457,0.3596015270157351,0.09459354624801401,0.10162325216478237,0.28797148403445877,0.040492375183740874,0.143072259595804,0.07350394385284854,0.04877377498309686
-0.0033396743901451765,0.03629999752401341,0.4906637448001947,0.012417004613827817,0.030289063890786082,0.20379121700283315,0.43305701796988333,0.20529961979747358,0.36225590686980313,0.09528343702232596,0.10207965460640982,0.28574810215280116,0.04120653147097504,0.14271165621946855,0.07329990838275324,0.04890597508072288
-0.0034269461793810766,0.03681037617769981,0.491222268088926,0.012027583804112575,0.030466615345118082,0.20681734981288655,0.435869188325344,0.20581418422923964,0.3647410059547592,0.0959975366541644,0.10249093363204509,0.2834614761006567,0.041924082427620815,0.1423151404052381,0.07309608627364944,0.049048073307606174
-0.003512067195756153,0.03731842128651463,0.49161975163835103,0.01164427009872115,0.030678673955180563,0.2098314332473814,0.4385144243965539,0.20624877096615632,0.36705252637453006,0.0967368233042699,0.10285670695858597,0.2811134393079227,0.04264442493797997,0.14188269556031818,0.07289150687166021,0.04920006840888143
-0.0035947622380612717,0.03782380584992825,0.49185273813897795,0.011267230240963723,0.030926738714586302,0.212831651225377,0.4409907075919381,0.20660370055237923,0.3691865144398828,0.09750227815196419,0.10317660699711836,0.27870567092041915,0.0433669313919494,0.14141419663334973,0.07268507854975645,0.04936192050285467
-0.003674747938426728,0.03832615574207318,0.4919186260285033,0.01089661900273984,0.031212337347475312,0.21581645741532082,0.4432954854801829,0.20687991000486175,0.3711396404450694,0.09829483745705045,0.10345020218175006,0.27623985662398787,0.044090953097415585,0.14090949760790414,0.0724756062364706,0.04953355857564864
-0.003751732036849241,0.03882506941648506,0.491815615977366,0.010532577857881913,0.031537018634047786,0.21878455792732535,0.44542570080938826,0.2070789844625579,0.3729094345311993,0.09911533859221776,0.10367694266766771,0.2737178182933785,0.044815822736261425,0.14036850956847172,0.07226181235803845,0.04971488565355583
-0.003825412339574181,0.03932014441234114,0.4915425597007896,0.010175233430898208,0.03190233946665389,0.22173486016985786,0.447378046614947,0.207203133495573,0.37449446643903744,0.09996448220822425,0.1038561649363661,0.27114160690595146,0.04554085510238871,0.13979126260433103,0.07204236069378565,0.0499057806575584
-0.0038954757945960654,0.03981100365349575,0.4910987162675435,0.009824695832295218,0.032309847563106515,0.22466638815357662,0.44914930973548184,0.2072551149648243,0.37589445948794986,0.10084283463418971,0.10398715447130306,0.2685135549912373,0.04626534531804223,0.13917794769684516,0.07181588235627055,0.05010609614800224
-0.00396159783241726,0.04029731894469699,0.4904834271641576,0.009481057293300479,0.03276106212080057,0.2275781663743062,0.4507366962621746,0.20723811254748462,0.3771103322666313,0.10175086861975378,0.10406923260678189,0.2658362868091381,0.04698856375632526,0.13852893578404155,0.07158100286087384,0.05031565143343409
-0.00402344199412525,0.040778830375273065,0.4896957524621,0.009144391999832632,0.033257458606417725,0.23046907862947938,0.4521381024669644,0.20715557570876358,0.3781441650741153,0.10268901773969108,0.10410183956774519,0.26311268641571767,0.04770974701011874,0.13784477248709973,0.07133636905622442,0.05053422082429271
-0.00408065984910928,0.04125536049870853,0.4887341976544724,0.008814757593511458,0.03380046561942225,0.233337735200176,0.45335231793170283,0.20701103283167427,0.3789990918682144,0.10365772471762248,0.10408460375913647,0.2603458257407081,0.04842808443864181,0.13712614842866241,0.07108067455508002,0.050761517488455365
-0.0041328911856719445,0.04172682237385926,0.48759669754700746,0.008492197629290446,0.03439147469419716,0.2361824218510324,0.4543791512732319,0.20680790382876113,0.379679122120555,0.10465747677100855,0.10401739360395726,0.25753885671165866,0.04914270178380813,0.1363738465650055,0.07081268223871667,0.05099717743847575
-0.004179764440680713,0.042193220821804836,0.486280875614614,0.008176744052436576,0.03503185532960182,0.23900117275158572,0.4552194730477826,0.20654937616396807,0.3801889003191429,0.10568882573895377,0.10390034896487353,0.2546948732496647,0.04985264900061179,0.13558866937797567,0.07053124240624305,0.05124075441499226
-0.004220897320449575,0.0426546465622986,0.48478442442301267,0.007868419364502752,0.03572296798144069,0.24179191958416055,0.45587517480869033,0.2062384063228188,0.38053341371439475,0.10675239171555767,0.10373389010834548,0.2518167588664325,0.05055690225117467,0.13477135030436713,0.07023530520081787,0.05149173264335441
-0.004255897516428647,0.04311126323480301,0.48310546291924716,0.007567238443893284,0.036466172544191135,0.24455264735813745,0.4563490475729854,0.20587782996250636,0.3807176611322457,0.10784884986506049,0.10351870327129685,0.2489070682547633,0.051254382300672814,0.13392246867448981,0.06992392606473871,0.05174955181039796
-0.0042843632669627785,0.04356328766835647,0.48124281871441044,0.007273209997385054,0.037262831928514435,0.24728152837226572,0.4566445868499939,0.20547050471623843,0.38074633594308527,0.1089789009879103,0.10325570313353273,0.24596801134053617,0.05194398224604912,0.1330424136234819,0.06959626315431669,0.052013634984022214
-0.004305883430485646,0.044010964125776965,0.4791962211425911,0.006986337630093738,0.03811431073909774,0.24997702694111298,0.4567657346840226,0.2050194321417516,0.3806236591100131,0.11014322721041565,0.10294597381896052,0.24300155355740047,0.052624597444082946,0.1321314249424143,0.06925156588612044,0.05228341542071648
-0.004320037013956093,0.04445453358991782,0.4769663965250232,0.006706620532978869,0.039021969432846006,0.2526379692730347,0.4567165717199196,0.20452784490020445,0.3803534644159026,0.11134243487309953,0.10259069135174913,0.24000957019529334,0.05329515443406915,0.1311896806159839,0.06888915409299659,0.052558360889748995
-0.004326392473320286,0.04489420202136744,0.47455506299258465,0.0064340537989818055,0.039987154648684534,0.25526357495519086,0.4565009761955944,0.2039992583936863,0.3799394636004526,0.11257699573168542,0.10219103181871544,0.2369939916572783,0.053954636981506515,0.13021738556155218,0.06850838764404507,0.05283799417430075
-0.004324507097181524,0.045330118696499375,0.47196482802977163,0.0061686283908806904,0.04101118661417238,0.25785344865379034,0.4561223152087227,0.2034374882495586,0.3793855469080739,0.11384721610385166,0.10174808392764154,0.2339569164885294,0.05460210729036758,0.12921484332306898,0.06810862682550864,0.05312190849740594
-0.004313926576389038,0.045762376558346314,0.46919899722756175,0.005910330795269102,0.04209534463388986,0.26040753268036937,0.4555833147869173,0.20284663684120965,0.3786960469728892,0.11515325728434557,0.10126281051056009,0.23090068647751108,0.05523672046914215,0.12818250695337866,0.06768918739389772,0.0534097767657275
-0.004294184771955687,0.04619103309130476,0.4662613072480917,0.005659142406980119,0.04324085165331173,0.26292602286261013,0.4548861916283615,0.20223105340566386,0.3778759499424935,0.1164951937874371,0.10073608627327654,0.22782792057360488,0.055857730509910046,0.12712100657735143,0.06724930605777162,0.05370135372824059
-0.004264803683183544,0.04661613881009555,0.4631555994686408,0.005415038696091476,0.044448860181512805,0.2654092516117951,0.4540329407716957,0.2015952732305863,0.376931047454766,0.11787308006624032,0.10016878143557795,0.22474150706427087,0.05646448636346894,0.12603115252619684,0.06678813975939943,0.05399647040952556
-0.00422529360973614,0.04703776348531067,0.45988546785694157,0.005177988214853706,0.04572044426590582,0.267857543184074,0.45302563142300484,0.20094394184217665,0.37586802586256574,0.11928701038436396,0.09956184615133652,0.22164455617247913,0.057056417167249004,0.12491391438019118,0.06630480478174779,0.05429502049479754
-0.00417515349571387,0.04745601711640363,0.4564539788064135,0.004947951541786855,0.0470565999602827,0.27027104711841105,0.4518666563585089,0.20028173016034692,0.374694491931445,0.12073716717865868,0.09891637818745835,0.21854031772835253,0.05763300628973702,0.12377037765989621,0.06579843714379822,0.054596938706760724
-0.004113871440265071,0.04787106506856911,0.45286360831819,0.00472488048786849,0.04845825043261167,0.27264958059715394,0.45055892738330877,0.19961324624362406,0.37341893698106443,0.12222385490189563,0.09823367106579851,0.21543207062521555,0.058193754562000564,0.12260168117536288,0.0652682546977964,0.05490217160711771
-0.004040925357467109,0.04828313719497395,0.4491164329118839,0.004508718138871416,0.049926250641813705,0.274992557692164,0.4491060118075358,0.198942948580943,0.37205064397484827,0.1237475169668556,0.09751524125554811,0.21232299223956236,0.05873813668788415,0.12140893909946104,0.06471361306795362,0.0552106416565618
-0.003955783709209857,0.04869253113641559,0.4452144440369291,0.004299399945306537,0.05146138990763111,0.27729905633441443,0.44751220736921427,0.19827506496972894,0.37059954427406394,0.12530873419768368,0.09676283437727454,0.20921603032255115,0.059265566228228136,0.12019316006235793,0.0641340524055366,0.05552221153595403
-0.003857906064912716,0.04909961028812206,0.4411598490603788,0.004096855363051069,0.053064392425151645,0.27956797363234354,0.4457825553987601,0.1976135228004232,0.3690760325741516,0.12690820409433454,0.09597841162497091,0.20611383000309463,0.059775392071777025,0.11895519503735474,0.06352933230876391,0.055836667870643154
-0.003746743189888491,0.04950479712127643,0.4369553109928377,0.0039010094694348,0.054735915882900214,0.28179819266628536,0.4439227942153922,0.19696190345139214,0.36749074986897734,0.12854670118383157,0.09516411864535981,0.2030187577380289,0.06026693254084749,0.11769574534540195,0.06289945283787654,0.05615373819467941
-0.003621736640319006,0.04990856263419415,0.43260411810223126,0.003711784354124753,0.056476548399218444,0.28398873016430426,0.4419392567211733,0.19632343291157245,0.36585434510300274,0.13022501971252956,0.09432223988810916,0.19993299728123487,0.06073952890783097,0.11641542345100615,0.06224466030053977,0.05647313078929278
-0.003482318115372203,0.050311412691437886,0.42811027808734436,0.0035291002538756036,0.058286804006698334,0.28613885835254643,0.43983871787819234,0.19570100260895051,0.36417722659314566,0.13194390086796662,0.09345514194153658,0.19685865843215455,0.06119259866670363,0.11511483018008639,0.06156543732832431,0.05679457886326781
-0.00332790877965455,0.05071387191050932,0.42347853521446815,0.00335287640708011,0.06016711688935451,0.2882481948879638,0.43762819919410373,0.1950972001789437,0.36246934245146056,0.13370395511970637,0.09256520960306908,0.19379786474031405,0.06162568049964494,0.11379462218347944,0.060862477642272116,0.0571178808628934
-0.0031579186336076347,0.051116465608329005,0.41871431258721115,0.003183031612188902,0.06211783452207513,0.2903167557381979,0.4353147384887112,0.194514336904554,0.36074008117469303,0.13550561067817207,0.0916547784248998,0.19075281226427424,0.06203846793223187,0.11245556152785185,0.06013664674741929,0.05744293476536303
-0.00297174597174723,0.05151970016175155,0.4138235853089239,0.0030194844837520556,0.06413920979580173,0.29234496719453446,0.43290513407191206,0.1939544706699356,0.3589983427513196,0.13734912059818555,0.09072607479035383,0.18772579818362073,0.06243082931695739,0.11109854518373598,0.0593889305452084,0.0577697646608414
-0.002768776978048896,0.05192404200405005,0.40881269349795446,0.0028621534110524335,0.06623139215876724,0.29433363486557046,0.4304056979711681,0.19341942708881557,0.35725270706646917,0.13923462417467855,0.08978118839653138,0.18471921986129253,0.06280281260651228,0.10972461334834392,0.058620374465848085,0.05809853825673082
-0.002548385516045488,0.05232989585205471,0.40368810675962646,0.0027109562367045818,0.0683944177865551,0.296283869429316,0.4278221117219778,0.19291082128287448,0.35551160056634934,0.14116222905759912,0.0888220910677058,0.18173554660164293,0.06315463431029285,0.10833493676470188,0.05783202032939817,0.05842957433274678
-0.002309933176187556,0.052737586223543055,0.39845615370120324,0.0025658096855523237,0.07062819943133963,0.29819697100769194,0.4251594677780953,0.1924300822738558,0.3537834267068784,0.14313208895985402,0.08785068230490763,0.1787772677632177,0.06348665299960694,0.10693078440875817,0.05702486127921713,0.05876333961440477
-0.002052769642895299,0.053147351078981345,0.3931227600848552,0.002426628586910273,0.07293251826794434,0.3000742761351519,0.4224224608662412,0.19197848114715796,0.3520766582230106,0.14514446837532227,0.08686883457868123,0.17584682200233334,0.06379932866825823,0.10551347403692725,0.056199839300036705,0.05910043499214759
-0.0017762334374089516,0.053559352146725955,0.38769330316419226,0.0022933249787499047,0.07530702025307545,0.3019169732849327,0.4196156230211389,0.19155716311514945,0.3503998911063407,0.14719979087705942,0.08587842884792077,0.1729465132054239,0.06409317009848377,0.10408430904397267,0.05535788563896945,0.05944157147148849
-0.0014796530798670997,0.05397369560109427,0.3821726678885856,0.0021658073850496333,0.07775121657474489,0.3037259191245913,0.4167435363474737,0.19116718246960815,0.34876186188177233,0.14929866829896415,0.08488137997672972,0.17007842763015885,0.06436867571221715,0.10264451044738813,0.05449997881023889,0.05978753667650389
-0.0011623486956951349,0.05439045462206137,0.3765654531290256,0.002043980762547634,0.0802644853068559,0.3055015414136295,0.41381100499281537,0.19080953831358738,0.34717143126185235,0.15144190898439303,0.08387965240993644,0.1672443861667333,0.06462628523338812,0.10119516767516054,0.053627198238959096,0.06013915312839578
-0.000823634006681804,0.05480969052398038,0.3708762074572037,0.0019277472928971148,0.08284607188463458,0.3072438957084166,0.4108231797043099,0.1904852080681302,0.3456375384825185,0.15363050428919942,0.08287526691300916,0.16444595947584087,0.06486636862844777,0.09973723648340556,0.0527407663581647,0.06049722987270668
-0.0004628182510973765,0.055231471527798955,0.36510962686227255,0.0018170075921646737,0.08549508722325953,0.30895283466313234,0.4077856301393554,0.1901951752094859,0.3441691315574844,0.15586559361842575,0.0818702995098549,0.16168453079004907,0.06508925991362782,0.09827158464926397,0.05184207763620605,0.060862516420685214
-7.920709940648761e-05,0.05565588822173493,0.359270698084584,0.0017116618392837507,0.08821050268575212,0.31062820131288427,0.4047043622586258,0.18994044761258405,0.3427750793179594,0.15814840939521596,0.08086687394748321,0.15896136746370795,0.06529531353262129,0.09679905652122628,0.05093271374560768,0.06123568215663007
0.0003278979437421687,0.05608306481215646,0.35336478372921065,0.0016116106379173445,0.09099114123222536,0.31226999990248344,0.4015857805636485,0.18972206328795788,0.3414640714306376,0.16048020442044497,0.0798671490765968,0.15627767794904943,0.06548495906017826,0.09532053110454804,0.05001444486338032,0.06161733643518812
0.0007592011110350173,0.056513165410570096,0.34739764883367746,0.0015167555767766714,0.09383566545089987,0.3138785311014263,0.3984365975254778,0.18954108114802523,0.34024451262074895,0.1628621649808805,0.0788733024726715,0.15363464821667785,0.06565874533995472,0.09383696530434768,0.04908921786461535,0.062008074685653135
0.0012154141306984887,0.05694639482349936,0.3413754319470598,0.001426999473719099,0.0967425670594608,0.31545448419709093,0.39526369513370246,0.1893985555937905,0.33912441708779434,0.1652953185371012,0.07788751145869965,0.15103345639453117,0.06581737202459828,0.09234942064985989,0.04815913287904869,0.06240852756061593
0.001697257814327686,0.05738299358934317,0.33530456676452125,0.001342246310835101,0.09971016458222749,0.3169989808741122,0.39207394591103795,0.18929549499583703,0.33811130861367245,0.16778046233640465,0.0769119324668591,0.14847526566432023,0.06596170717494759,0.09085907284429938,0.0472264102705856,0.06281940404363939
0.0022054633219221235,0.05782322731360476,0.32919166272672373,0.0012624008889920862,0.10273661108980625,0.31851356754167615,0.3888740028241242,0.18923280536768455,0.3372121362699264,0.17031814869975606,0.07594867943655578,0.14596119670871566,0.06609279031207879,0.08936720448675613,0.046293350530267605,0.06324152671372235
0.00274077295193166,0.05826737066258373,0.3230433545854719,0.0011873682486448272,0.10581990764340062,0.3200001557296571,0.3856700879675571,0.1892112215403574,0.33643322495018324,0.1729087327346193,0.07499980173216664,0.14349228218574986,0.06621182106623882,0.08787518223660941,0.04536228981762316,0.06367585769546337
0.003303940314538164,0.058715686658464675,0.3168661316986269,0.001117052920259909,0.10895791748428613,0.3214609126928896,0.3824678584373239,0.18923123372259656,0.3357802712468194,0.17555244964895605,0.07406726190546804,0.1410694077772766,0.06632013429541092,0.08638442048782825,0.04443555515958443,0.0641235142170677
0.003895729767395214,0.05916840215227528,0.31066616486550913,0.0010513582066155004,0.11214837810540125,0.3228981069007121,0.3792724254805212,0.18929303356117483,0.3352583661655382,0.17824949003831125,0.07315291412990835,0.1386932565246039,0.0664191632171176,0.08489633425383337,0.043515429247064384,0.06458577313170691
0.004516915024088926,0.05962568073105069,0.3044491760263452,0.0009901859356011558,0.11538890910942377,0.32431391542721816,0.37608850566020663,0.18939651076985012,0.3348720154951397,0.18100006245755715,0.0722584875100766,0.1363642905535857,0.06651039267225908,0.08341228512025783,0.04260413960153392,0.06506406420996964
0.005168276885127004,0.060087598172663355,0.29822041308015634,0.0009334369368069852,0.1186770138368853,0.3257102203337031,0.3729206119242663,0.1895413039033419,0.3346251441548184,0.1838044409306791,0.07138558218288964,0.13408278839029636,0.06659530508199371,0.08193353279923275,0.04170387519242703,0.06555995246378385
0.0058506000867539305,0.06055413183684837,0.2919847389569163,0.0008810119354198884,0.12201007302183144,0.32708847131591573,0.3697732199287199,0.18972687708044852,0.33452108436315725,0.18666299545756754,0.07053568107251602,0.13184891396447285,0.06667532781101905,0.08046121744102284,0.04081681526295983,0.06607511020029701
0.006564669310922621,0.061025170408931136,0.2857467714379044,0.0008328124248421614,0.12538532918314002,0.3284496975831175,0.3666508904153311,0.18995259704980683,0.3345625525069982,0.18957620397275302,0.06971017021194861,0.12966278385905114,0.06675180359360483,0.07899638533330292,0.039945154878155475,0.0666112799157771
0.007311264577520269,0.0615005359163091,0.2795110123342224,0.0007887413528619952,0.128799861049137,0.32979465935474384,0.3635583428609088,0.19021780241882694,0.33475162662718244,0.19254464465555016,0.0689103595072815,0.12752451902993536,0.06682600111724209,0.07754003881888762,0.03909112258287461,0.06717022951408759
0.008091156987589686,0.061980006762249025,0.2732819469217958,0.0007487035992110531,0.1322505513312255,0.331124050873103,0.36050047826571513,0.1905218634443746,0.33508974106959627,0.19556896804598242,0.06813750110634904,0.1254342775137044,0.06689915539473318,0.07609318502795079,0.038256990377866146,0.0677537016602463
0.0089051065762986,0.0624633376706725,0.26706411210470743,0.0007126062341548516,0.13573406184085324,0.33243868635001894,0.35748235165923176,0.19086423103684202,0.3355777027494548,0.1986498491301132,0.06739280491030519,0.12339226589197828,0.06697251447585827,0.07465687388174973,0.037445076638124124,0.06836336612465187
0.009753863063466432,0.06295027599732919,0.26086213299432304,0.0006803585585776187,0.13924683431680915,0.33373964530443784,0.35450909754972415,0.1912444737624592,0.3362157150563742,0.20178792043229074,0.06667745090171673,0.1213987287326261,0.06704737979519866,0.0732322238336954,0.03665774291127036,0.0690007974238527
0.010638168293980978,0.06344057398228352,0.2546807287412082,0.000651871935522727,0.1427851202783487,0.33502836902208266,0.35158581401420597,0.19166230165724346,0.33700339348259883,0.2049836881595937,0.06599259816214771,0.11945391678433398,0.06712513719442456,0.07182043456121491,0.03589738573674618,0.06966749209369909
0.011558758835226998,0.06393399661518825,0.24852468958187002,0.0006270594311402317,0.14634502661970653,0.3363067024445385,0.3487174133017029,0.19211757563442516,0.3379397657749877,0.20823743739398207,0.06533939067492593,0.11755803625017944,0.06720727772359222,0.07042278661234584,0.03516642472410628,0.07036491079398428
0.012516368128327815,0.06443032486162445,0.24239882817888364,0.0006058352893867516,0.1499225641368547,0.3375768787336002,0.34590845347752297,0.19261030124817655,0.3390232546557648,0.21154914966591748,0.06471896020228232,0.11571118717135907,0.0672954077501561,0.06904062878861716,0.034467288135704814,0.07109452243652549
0.013511728026976406,0.06492935406397558,0.23630790941351137,0.0005881142696195053,0.1535136931820517,0.33884144689067397,0.343162995380767,0.1931406056623197,0.3402516523417,0.2149184744603964,0.06413242664492873,0.11391331514316336,0.06739124829463855,0.06767535475247519,0.033802397156517464,0.07185784131123335
0.01454556958043108,0.0654308873950929,0.23025656375976872,0.0005738109797965696,0.1571143629274718,0.3401031459706661,0.34048455969674585,0.19370869695698423,0.34162211557705524,0.21834477139051695,0.06358089631374098,0.11216420902311956,0.06749662387756318,0.06632837093294316,0.03317414992342152,0.0726564556924343
0.015618622942011376,0.06593472431961246,0.22424919012053252,0.000562839554281722,0.16072054063461366,0.34136473244659415,0.33787621150437785,0.19431480545714883,0.34313120500977673,0.22182719034495202,0.0630654584725157,0.11046355040673565,0.06761344151908331,0.06500105823201077,0.03258490624584332,0.07349204698453346
0.016731616309672265,0.06644064411726225,0.21828986558457178,0.0005551139482347434,0.1643282274283199,0.3426287699887361,0.33534070948364625,0.19495910760037113,0.344774960797505,0.225364749755715,0.06258718037362944,0.10881098581033587,0.0677436608944222,0.06369473322511715,0.03203697501693066,0.07436639896440135
0.0178852738303845,0.06694838465260369,0.21238230226197216,0.0005505486862129735,0.1679334574011639,0.34389742307848437,0.33288064640411913,0.19564163392407954,0.34654899271415784,0.22895639738847356,0.06214710083971082,0.10720619252413682,0.06788925701839632,0.06241062247122089,0.031532608317586266,0.07528139716987846
0.01908031242527706,0.06745761673886674,0.20652987830401534,0.0005490597201513308,0.17153227745015615,0.3451723570869284,0.33049855448829873,0.19636217490939495,0.3484485726042746,0.2326010497798031,0.061746222278894564,0.10564892714886928,0.06805217719893693,0.06114986358591523,0.031074003886389583,0.07623901894070255
0.02031743751835821,0.0679679178933651,0.20073571740098425,0.0005505652240370726,0.17512070607662522,0.3464548142687875,0.3281969718325083,0.19712022542412025,0.3504687225566132,0.23629760781361117,0.06138550089023074,0.10413905385160702,0.06823429849135271,0.0599135299314554,0.030663311731614497,0.07724131501727442
0.021597337678634,0.0684787571744214,0.1950027716926977,0.0005549862797605717,0.17869467044169798,0.3477458033229354,0.3259784687545664,0.19791500542854823,0.3526042919365885,0.24004494747517688,0.06106583474692144,0.10267655096299667,0.06843740180505706,0.05870266208089898,0.03030263971893424,0.07829038392445904
0.02292067821372438,0.06898950204291313,0.1893338870249363,0.0005622474243505782,0.18224992523753739,0.3490462974905068,0.32384563550032724,0.1987455441204993,0.35485001666139543,0.243841886394921,0.06078804945954263,0.10126149621167559,0.06866317672412971,0.057518293550325915,0.029994056464045585,0.07938834059399275
0.02428809378230328,0.06949944389930793,0.18373184731574546,0.0005722770300789241,0.1857819771376425,0.3503573945848687,0.3218010349755913,0.1996107838548768,0.35720055479847707,0.2476871282493728,0.060552882171699046,0.09989403249841505,0.06891325057822457,0.05636146730931424,0.029739591745522834,0.08053728079506425
0.025700180801409726,0.07000783036493181,0.17819939826450934,0.0005850074908017643,0.18928606331585224,0.3516804282493409,0.31984712592669573,0.2005096759789362,0.3596504936600148,0.25157918830456544,0.06036096884023029,0.09857431750126036,0.06918922313501653,0.05523324285408148,0.029541234855650456,0.08173924294083558
0.027157492035112234,0.07051389676453981,0.17273925185677483,0.0006003751909684577,0.1927572103630226,0.35301702453347716,0.31798616318953177,0.20144125984905403,0.36219432497575305,0.25551630428694344,0.06021284343154772,0.09730246144800837,0.06949269530757407,0.05413469433231045,0.029400931374391214,0.08299616965522393
0.028660535562997233,0.07101689423550073,0.16735407410474726,0.0006183202386263557,0.19619034483796394,0.35436910139072036,0.316220082246538,0.20240472133166795,0.36482638636948916,0.25949634516718384,0.06010895229442978,0.09607846611702353,0.06982528875295323,0.05306690086270433,0.029320578865247894,0.08430987646236053
0.030209777436874065,0.0715161129108163,0.16204645917200328,0.0006387859510677202,0.19958041381002345,0.35573881234281496,0.3145503827156776,0.20339942835259545,0.36754076915753103,0.26351675024394605,0.06004967748963783,0.09490219445374136,0.07018865570539964,0.052030930734310255,0.029302022466907898,0.08568204010755272
0.0318056457051429,0.07201089868170216,0.15681889344457223,0.0006617180918132556,0.20292249670791243,0.3571284390296931,0.3129780467758077,0.20442494247622997,0.3703311943479669,0.2675745296940554,0.060035361661489206,0.09377339029976985,0.07058447907909099,0.051027821546233434,0.02934705238562446,0.08711421075338549
0.03344853442360829,0.0725006621789373,0.1516737132366944,0.0006870638703133081,0.2062119009303528,0.35854024038312476,0.3115035329362186,0.20548100695198374,0.37319087673741513,0.27166631857403173,0.060066331260643716,0.09269173017062113,0.07101446353566555,0.050058558518352204,0.02945740478113556,0.08860783711298244
0.035138807225490995,0.072984878824916,0.1466130596862299,0.0007147708769228259,0.20944423397258932,0.35997626849795655,0.31012684225736137,0.20656751303219903,0.3761124394752811,0.2757884487924544,0.06014291670935829,0.09165687633916365,0.07148031878156193,0.04912405456505069,0.029634765088927182,0.09016429241873876
0.03687680018865721,0.07346307910404015,0.141638838437555,0.0007447864769843399,0.21261544559559967,0.3614381774816466,0.3088476120874287,0.2076844475161389,0.379087943421253,0.27993701507210456,0.060265468100687274,0.09066851749528074,0.07198373679775827,0.048225138454985356,0.02988077171626167,0.0917848974564515
0.038662823729503505,0.07393482858166033,0.13675270059835035,0.0007770581367740192,0.21572183479498047,0.3629270920428658,0.30766520103805617,0.20883182529938268,0.3821090220384424,0.2841079285801963,0.060434365140415135,0.08972639481231443,0.07252636498713992,0.047362555193899564,0.030197019027764928,0.09347094046839644
0.04049716325213076,0.07439969767344577,0.13195605669002178,0.0008115345117395983,0.21876001797004482,0.36444360555511346,0.3065787552607104,0.2100096111358152,0.3851670585787613,0.2882969571494533,0.06065002027407055,0.08883031330355126,0.07310977734575952,0.04653697442051585,0.030585059373070742,0.09522369365974838
0.04238007829029472,0.0748572217223013,0.12725011346556628,0.000848166764775328,0.22172685668119801,0.36598789712819035,0.3055872558977817,0.21121763483139216,0.3882533600497841,0.29249975159295954,0.06091287427824462,0.08798013936127884,0.07373544641896151,0.045748998795754094,0.031046404044399345,0.09704442593679295
0.04431179989984429,0.0753068582023369,0.12263591392914291,0.000886909782719636,0.2246193456198792,0.3675598895815084,0.30468954876017,0.21245550372131325,0.3913593116765342,0.29671185792230315,0.06122338401250907,0.08717578621044841,0.07440472149010938,0.044999168313755375,0.031582523036514695,0.09893441139932292
0.046292526092273634,0.07574796185183809,0.11811437056835258,0.0009277231685703917,0.22743446377884852,0.36915938886021193,0.3038843582246595,0.2137225211693289,0.39447650366017883,0.3009287153031097,0.06158200249649028,0.08641718962695465,0.07511881969359412,0.04428796047380803,0.032194843463891905,0.10089493303658177
0.048322415146328845,0.07617979738138035,0.11368629036984355,0.0009705719337746704,0.23016901314302685,0.3707861871376979,0.30317028795516426,0.21501763358672996,0.3975968230570062,0.3051456393794379,0.061989151965937836,0.08570427663457576,0.07587882986360191,0.04361578740828717,0.032884746479275306,0.10292728106075029
0.05040157669419883,0.07660158417353632,0.10935239203961153,0.0010154268313759555,0.2328195182933316,0.3724401263089044,0.3025458112719417,0.21633942838883485,0.4007125048661267,0.30935779027155097,0.06244519278734469,0.08503692999260394,0.07668572029626658,0.042982991262621166,0.03365356254433725,0.10503274536819232
0.052530060550552676,0.07701255170849235,0.10511331609859735,0.0010622642932622555,0.23538226011603533,0.37412112075084314,0.3020092538114686,0.2176861769467501,0.4038161378278037,0.31356012422813656,0.06295039827371773,0.0844149511277844,0.07754034257631857,0.04238983915734931,0.03450256556197259,0.10721260174912738
0.05470784333440307,0.0774119917697631,0.10096962868994223,0.0011110659611705208,0.23785342908226484,0.3758291402461151,0.3015587705786429,0.21905589544205534,0.4069006219382709,0.31774732772589803,0.06350495023912855,0.08383802561448189,0.078443429505717,0.041836518935363505,0.03543296830652059,0.10946809166321257
0.05693481416033447,0.07779930242293542,0.09692182002915725,0.0011618178287365183,0.2402293219363482,0.377564155736569,0.3011923186802135,0.22044640552039627,0.4099590762718438,0.32191373287719627,0.06410895899951329,0.08330570001741823,0.07939558772759148,0.04132313663148218,0.03644592241713449,0.11180039564556779
0.05921076384974833,0.07817402099895536,0.09297029846558119,0.0012145090378493544,0.2425065281271314,0.3793260520209153,0.30090762606791654,0.22185539126069334,0.4129846973989676,0.32605322044774526,0.06476249520304833,0.08281737911309628,0.08039728683092016,0.04084971623529539,0.03754252357115628,0.11421060068360961
0.0615353827483014,0.07853584388758268,0.08911538111552725,0.0012691303942983809,0.24468208665728927,0.3811145125785895,0.3007021556596324,0.223280452982021,0.41597057054875786,0.3301591434283509,0.06546561999704648,0.08237234147114224,0.08144884971253523,0.040416201904459624,0.038723819506380694,0.11669966218560926
0.06390826710258748,0.07888463165796307,0.08535728198673774,0.0013256728067743244,0.24675360359521567,0.3829288823680523,0.3005730634014235,0.22471915795792,0.41890944431306537,0.3342243232819146,0.06621840809400381,0.08196976192378734,0.0825504502580939,0.040022462383123784,0.03999081857208249,0.11926836477692275
0.06632892951621733,0.07922039881006665,0.0816960984524228,0.0013841261942597585,0.24871932229469462,0.3847680203193661,0.3005171483201984,0.22616908742044578,0.42179352776173923,0.33824113615060347,0.0670209618698822,0.08160873274524837,0.08370211930798531,0.039668297042087915,0.04134449761377921,0.12191729526850416
0.06879680995251747,0.07954328826559183,0.07813179714354904,0.0014444794369183145,0.25057814069228557,0.3866301793399147,0.3005307924922996,0.22762787842754362,0.42461443046291386,0.3422016533498861,0.06787341515331528,0.08128828218902774,0.08490375359323638,0.0393534427202243,0.04278580834303756,0.12464684221173783
0.07131128600926194,0.07985353148475516,0.07466420306053499,0.001506721296768345,0.252329572800939,0.38851297489906517,0.3006098963827208,0.22909325838989725,0.42736330904139513,0.3460977958289127,0.0687759260417111,0.08100739118162777,0.08615512218393198,0.03907758042541242,0.044315681354193975,0.1274572204736541
0.07387168183984295,0.08015139581586239,0.0712929996044622,0.001570841691691589,0.2539736545598533,0.390413462555778,0.3007498367630672,0.23056306946944524,0.4300311423183665,0.3499214850019894,0.06972865886517449,0.08076500879066267,0.08745586794406247,0.03884034094277832,0.04593502706441199,0.1303485063170384
0.0764772750937874,0.0804371226375206,0.06801774302596975,0.001636832854582799,0.25551079737237037,0.39232827509060497,0.3009454826408071,0.23203527980823194,0.43260902631915576,0.35366478107749355,0.07073175624604411,0.08056006676062291,0.08880550284253423,0.038641308480922315,0.04764473306720317,0.13332067215422205
0.07912730127454655,0.08071087141472967,0.06483788476042898,0.0017046902350089691,0.2569415957755277,0.394253764013718,0.30119127359537107,0.23350797870405157,0.4350884433925588,0.3573199995341529,0.07178530298999651,0.08039149300835312,0.09020339655175097,0.03848002164193295,0.04944565768076543,0.13637361749955165
0.08182095496321663,0.08097270035945103,0.061752793508074624,0.0017744131098095034,0.2582666040852187,0.3961861255942595,0.30148133305430974,0.23497935342400364,0.43746149018158675,0.36087979655955266,0.07288928963850079,0.08025822356329793,0.09164876214340233,0.03835597121029215,0.051338619806218774,0.13950719483952415
0.08455738742996263,0.08122259955955756,0.058761774171097056,0.0018460048824181252,0.2594861382333905,0.39812150638037364,0.30180959215752295,0.23644764626563847,0.43972105027953867,0.3643372150841675,0.07404359446370769,0.08015921208341531,0.09314065064832135,0.03826859450675854,0.0533243855448474,0.1427212292567627
0.08733570024535507,0.08146055517369946,0.05586408326116854,0.0019194730626033779,0.2606002088101724,0.4000560826809996,0.3021699143602875,0.2379110916008671,0.4418608995119226,0.3676856844832817,0.07524799594196446,0.08009343581544003,0.0946779640769246,0.0382172677321478,0.05540365231565416,0.14601553077353963
0.09015493460617954,0.08168661553027057,0.05305894051729717,0.001994828928752587,0.26160863399435114,0.4019861080200225,0.3025562150269512,0.23936783379853505,0.4438757348170718,0.3709189690126163,0.07650220370825912,0.08005989671898041,0.09625948297661478,0.03820130151112001,0.05757703215154701,0.1493898985163112
0.09301405620021368,0.08190094746870627,0.0503455366294848,0.0020720868839876404,0.26251125310361784,0.4039079224232145,0.3029625695780942,0.24081582794814269,0.4457611214836501,0.3740310624953585,0.07780588915153414,0.08005761644859852,0.09788389900995365,0.03821994518162114,0.059845038132149316,0.15284411594851574
0.09591193554968376,0.0821038799728106,0.04772303713559,0.002151263525693876,0.2633081392018908,0.40581791783691534,0.30338330339731573,0.24225273476678277,0.44751335780498364,0.37701602956230174,0.07915870788918716,0.08008562399530958,0.09954984732616982,0.038272399350298275,0.06220807830201303,0.15637793658901938
0.09884732389350684,0.08229593278082847,0.04519058272984754,0.0022323764559124683,0.26399977164688476,0.4077124552239299,0.30381305675239556,0.24367584731823502,0.44912926075214427,0.3798677967088322,0.0805603126726104,0.08014293503866907,0.10125593593089023,0.03835783171238318,0.06466645664307796,0.15999105984903556
0.10181882587356393,0.08247782844543003,0.04274728637452251,0.002315442867868694,0.26458716044295677,0.4095877310442511,0.304246818498641,0.24508209567525477,0.45060588075614877,0.3825799258657444,0.08201035612553058,0.08022852245977678,0.1030007691921921,0.03847539226080406,0.06722037597628785,0.16368309690067917
0.10482487562921201,0.08265048720798618,0.04039222772813563,0.002400478035094751,0.26507191756087795,0.41143959387287365,0.30467992333950067,0.24646813271758106,0.4519401578313004,0.3851454728930654,0.0835084834859233,0.08034128002751975,0.10478296280690282,0.038624226039086045,0.06986993860062254,0.1674535268444007
0.10786372832694516,0.08281500498254463,0.038124445488142165,0.0024874941280923542,0.26545627389148124,0.41326335216316396,0.30510800890749573,0.24783046074345003,0.45312858687901375,0.3875570368455995,0.08505431620308553,0.08047999134224003,0.10660114799451886,0.038803482155626214,0.07261514352339624,0.171301643862099
0.1109334726117257,0.08297261564857554,0.035942928293325675,0.0025764999473355146,0.2657430438911401,0.4150536927027729,0.30552693083344784,0.24916556466515793,0.45416706573755605,0.3898069844402241,0.086647427786798,0.08064332584227016,0.10845396335850396,0.039012317950085515,0.07545588041248108,0.17522650009466606
0.11403205638700922,0.08312463966584303,0.0338466062966683,0.002667501675839643,0.265935542953486,0.4168047983321404,0.30593263618272776,0.25047004053745253,0.45505104232903293,0.3918877441734509,0.08828731368706233,0.08082987132658949,0.11034003369668068,0.03924989746721425,0.07839192070994269,0.17922686132699348
0.11715731626434397,0.08327242170082823,0.03183434855534567,0.0027605041253666793,0.2660374648666611,0.4185106029818555,0.3063209980072226,0.2517407153261838,0.4557758546308642,0.3937920934980904,0.08997335761709768,0.08103818837718434,0.11225793597481598,0.039515383730635095,0.08142290661816146,0.18330119868516181
0.12030700687543465,0.08341726401404292,0.029904969972157636,0.002855511957148531,0.2660527282459979,0.4201650693536063,0.30668763095264057,0.25297475290996996,0.45633709108948045,0.39551341123323286,0.09170480116691039,0.08126686799865646,0.11420615361530548,0.03980792469976802,0.08454833888466533,0.18744772017410702
0.1234788287712979,0.08356037542362278,0.028057244803546762,0.0029525306810761816,0.26598530153450717,0.4217624345395772,0.307027756734133,0.2541697403005063,0.4567309000130662,0.39704588097437604,0.09348072970447764,0.08151458415387224,0.11618302641336326,0.04012663414443292,0.08776756445587827,0.1916644221612489
0.1266704534968188,0.0837028626975358,0.02628992099951299,0.003051567366540429,0.2658390161076584,0.4232974028330878,0.3073362088175904,0.2553237472318919,0.45695423286213543,0.3983846330516204,0.09530008078202677,0.08178013764534617,0.11818671740264175,0.04047057405675064,0.09107976513188505,0.19594914169867228
0.12987954432447857,0.0838457684882546,0.024601732501970883,0.003152631008513359,0.26561739606739593,0.42476526720942737,0.307607587500466,0.2564353519078184,0.45700501118760756,0.3995258151135634,0.09716166516459125,0.08206248812569793,0.12021521816461941,0.04083875099294924,0.09448394832658415,0.20029960264976657
0.13310377107072216,0.08399013049232965,0.022991408881686777,0.003255732507782825,0.26532357193948974,0.42616194472445174,0.3078364873792221,0.25750362608205846,0.4568822113971185,0.4004665846027023,0.09906418790766328,0.08236077165527769,0.12226638872816803,0.04123013230401548,0.09797894091687169,0.20471345328369547
0.1363408174150548,0.08413703727993425,0.021457682125089327,0.0033608842440107415,0.2649603224502076,0.427483916473294,0.3080177244538008,0.25852807396698113,0.45658586610855223,0.40120502010514475,0.10100626530668826,0.08267430210561215,0.12433800965137597,0.041643674291121265,0.10156338695300975,0.20918829337038844
0.13958837920756928,0.08428767227019159,0.019999290519067507,0.0034680992433264524,0.26453019996099675,0.42872806942364117,0.3081465352350332,0.2595085217679574,0.4561169852272647,0.4017399526328611,0.10298643766913018,0.08300255574552394,0.1264278302620788,0.04207835145155948,0.10523574970851875,0.2137216892906706
0.14284415239576725,0.08444334397193333,0.018614979717990896,0.0035773899667182053,0.2640356666100947,0.42989144488096526,0.3082187372515446,0.2604449578294679,0.45547740374283946,0.4020707221216642,0.1050031781252196,0.0833451394380885,0.12853360777091452,0.042533181835364406,0.10899431818608701,0.21831117622954857
0.14610580943435547,0.08460550131939962,0.017303501201751042,0.003688766769374619,0.2634792099707632,0.4309709219531517,0.3082308418628369,0.26133732987650277,0.45466956632693417,0.4021968685630939,0.10705489783661716,0.08370174391878211,0.13065313537986326,0.04300724639096851,0.11283721778575972,0.22295424709380327
0.1493709633669405,0.08477573369924854,0.016063608439394906,0.0038022361329794773,0.26286343399460166,0.4319629439360156,0.30818011238070625,0.2621853484465055,0.45369626095976356,0.40211779103344686,0.10913994797198935,0.08407208453286949,0.13278425832822,0.043499700447299706,0.11676242440778416,0.22764832833235277
0.15263711918676057,0.08495575604984816,0.014894051157755519,0.003917799049094245,0.26219112425455,0.4328634633164043,0.3080645631285086,0.26298841242775595,0.45256031496412646,0.4018324838356203,0.11125661870870127,0.08445583572246847,0.13492487763139,0.04400977591672244,0.12076778083447029,0.23239074328999254
0.15590161343027698,0.08514738017112602,0.013793568180178267,0.004035450291125142,0.2614652872582022,0.4336681677902515,0.30788289812693875,0.26374572733604296,0.4512642744867889,0.4013395036405513,0.11340313532811065,0.08485257873100993,0.13707294198638081,0.044536773377683594,0.12485101384683615,0.23717866405931173
0.15916155526118722,0.08535247406689549,0.012760880633060884,0.004155178934342346,0.2606891642972002,0.43437285255017455,0.30763439142905763,0.264456542850983,0.44981013706087003,0.4006371986919811,0.11557765124902475,0.08526179092980604,0.1392264288715077,0.04508004386047926,0.12900975021812972,0.24200905300249076
0.1624138029576162,0.08557291170944326,0.011794689848660167,0.004276969582647249,0.2598662209534013,0.4349737800469412,0.3073187145196516,0.2651203971478469,0.4481992641894312,0.3997240651357316,0.1177782376376385,0.08568288359693989,0.14138331621558403,0.04563896085913055,0.1332415295209674,0.24687859520945118
0.16565499888750748,0.08581051614938691,0.01089368270501766,0.004400803593778834,0.2590001140038801,0.435467962037074,0.3069357193758885,0.2657373190613967,0.4464325264242622,0.3985990944624487,0.12000286907544222,0.08611526345774166,0.14354154614606135,0.04621288512782352,0.13754381161382245,0.25178362451413494
0.16888164551298432,0.08606700672546344,0.010056541471472306,0.004526660038973817,0.25809463804619537,0.4358533438432789,0.3064851884714062,0.26630797339067064,0.44451057819867534,0.39726206193281244,0.12224940467502975,0.08655839234734301,0.14569898227078193,0.04680113300396019,0.14191397674970255,0.2567200572298723
0.17209019279676313,0.08634397511247037,0.009281953602576005,0.004654516355918646,0.25715365468104906,0.4361288779482213,0.3059665993139603,0.26683373870887134,0.4424341388417393,0.39571374200653525,0.1245155640148738,0.08701183594748181,0.1478533617544162,0.047402967714898714,0.14634931647444346,0.26168336449773794
0.1752771241189786,0.08664290468293824,0.008568619567216372,0.004784348674553561,0.25618100751162676,0.43629448201682264,0.3053790180839141,0.2673167121711152,0.4402042362401592,0.39395604082120383,0.12679889732768432,0.08747529976619096,0.15000224318377725,0.04801762235471579,0.15084701384098226,0.2666686007082403
0.17843903625909802,0.08696521534795311,0.007915258314615849,0.004916131813836981,0.2551804265173623,0.43635088450109705,0.30472119283098015,0.2677596414893319,0.437822406153082,0.39199204038769253,0.12909675356117262,0.08794865125714699,0.15214295662154845,0.048644340784460664,0.15540411193872683,0.27167046851922805
0.18157270867653627,0.08731230837695478,0.007320610156379577,0.005049838962277785,0.2541554255126358,0.4362993685229594,0.30399176733468336,0.26816578989352263,0.4352908410014933,0.3898259540973103,0.1314062604129104,0.08843192768687293,0.15427257511945444,0.04928241870309212,0.16001747030118715,0.2766833929600041
0.18467515720682023,0.08768560157205188,0.0067834370012834645,0.005185441065073034,0.253109199016041,0.4361414312766789,0.3031894992693294,0.26853874497797725,0.4326124829960373,0.3874629980598347,0.13372433165835698,0.08892533000296242,0.15638792485068356,0.04993123734356172,0.164683715032364,0.28170159427721986
0.18774366741873144,0.08808655336723742,0.006302520049292875,0.005322905946137537,0.2520445396522053,0.43587840681549345,0.30231343909293645,0.2688821863862174,0.42979105787127425,0.384909187389515,0.13604770065429797,0.08942920350040524,0.15848562712447847,0.05059028725336813,0.16939920421294344,0.28671915721547453
0.19077580328583765,0.08851667496108201,0.005876655219892832,0.00546219719503861,0.250963812596351,0.43551118427231683,0.301363064372941,0.2691996478410064,0.4268310473351575,0.38217107051416277,0.1383729667804969,0.08994400651116041,0.16056215301815144,0.05125918019409664,0.1741600332671999,0.29173009406517925
0.1937693875368068,0.08897753013351997,0.005504646743347328,0.005603272848140551,0.2498689993503137,0.43504018355180096,0.30033836706239647,0.2694943559047811,0.42373760061751903,0.37925541761791265,0.14069664518112177,0.0904702686589361,0.162613879889592,0.051937647945418254,0.1789620805632896,0.2967283984882434
0.1967224510723033,0.08947072292966375,0.005185300206287591,0.005746083891461468,0.2487617780623867,0.4344655985352695,0.29923989379153815,0.2697692239400956,0.420516388128041,0.3761688886032596,0.14301521580103171,0.09100854044459823,0.1646371468275854,0.052625527670764706,0.183801072791705,0.3017080868962618
0.19963315016358774,0.089997873906645,0.0049174182225712225,0.005890572662879448,0.24764360384952822,0.43378774900867073,0.2980687413954747,0.2700269782232085,0.4171734030563268,0.37291775502185204,0.14532516874957024,0.09155933608015851,0.16662830704088868,0.053322734422445874,0.18867265371313294,0.3066632240485371
0.20249965174927045,0.09056058612419289,0.004699801656843045,0.006036671491721047,0.2465157773566248,0.43300739804426025,0.2968265115881565,0.2702703167040264,0.4137147195492687,0.3695078047776921,0.14762304277192687,0.09212307689641196,0.16858377470270194,0.054029222252908765,0.19357244949549854,0.311587929593001
0.20531999804421058,0.09116040250449071,0.004531255437965889,0.006184302183001479,0.24537950090708094,0.4321259856340186,0.29551522990067813,0.2705020299898991,0.4101462186323423,0.36594447723924245,0.14990545358409235,0.09270005594007888,0.17050006338107843,0.05474493746708319,0.198496126407212,0.3164763625176645
0.2080919977847725,0.09179876072168716,0.004410595329149343,0.006333376603345973,0.24423592211432338,0.4311457678302163,0.2941372347496824,0.2707250665830173,0.4064733279038696,0.3622331170522179,0.15216910905142741,0.09329044386375178,0.17237381296563464,0.055469776604678805,0.20343943657139366,0.32132268093051386
0.2108132166831025,0.09247696303094526,0.004336653162037638,0.006483797941386993,0.24308616525150847,0.4300698573706711,0.29269504283611797,0.2709425432311179,0.4027008898507058,0.3583792173474942,0.1544108086554869,0.09389433070324678,0.17420180200135144,0.05620357210313775,0.20839824767059043,0.32612097524990574
0.21348108887498773,0.09319617934040365,0.0043082798081303855,0.006635462127205032,0.2419313509874883,0.42890216846762835,0.2911911970674259,0.27115770563648445,0.3988332401192006,0.35438860906741143,0.15662742536766108,0.09451178036390047,0.1759809425966459,0.05694611588836643,0.21336855293911203,0.3308651737645337
0.2160930947346426,0.09395748098066609,0.004324345774440431,0.006788259226936742,0.2407726052713373,0.42764727456105367,0.2896281029407125,0.2713738482481812,0.39487442778411874,0.35026759361714294,0.15881586888234145,0.09514288199872373,0.17770825559675146,0.05769720382135428,0.21834645848715117,0.33554892060081154
0.21864694441129714,0.09476188568680523,0.004383739507123897,0.006942074771304251,0.23961105818025463,0.42631019289204414,0.28800786722773025,0.2715942041235138,0.3908284537221361,0.3460230192680441,0.16097303009755037,0.09578779341112877,0.17938082449122703,0.05845667926386326,0.22332814594425193,0.34016544004502
0.22114074114240181,0.09561039898057881,0.004485363667948213,0.007096790969976122,0.23844783344864695,0.42489611338685995,0.2863321811851912,0.2718218167584781,0.38669946847397685,0.341662304436173,0.16309570770625165,0.09644677456636856,0.18099572751971732,0.059224467202335616,0.2283098095486216,0.3447074401548416
0.22357311290332796,0.0965040468615507,0.004628129793301561,0.00725228775603959,0.23728402920057412,0.42341009138062885,0.2846023047544875,0.2720594096591707,0.3824919181919821,0.337193413033788,0.16518052627448665,0.09712020951608147,0.1825499485984579,0.0600005968570675,0.2332875680873065,0.34916712292432805
0.22594330187749248,0.09744389785256281,0.004810952112431166,0.007408443597261279,0.23612069016135195,0.4218567547323301,0.28281915753546044,0.27230928512310565,0.3782106356898575,0.33262478851663496,0.16722387819815696,0.0978086153695319,0.18404027997924408,0.06078521137595909,0.2382573534420934,0.35353630858858387
0.2282512030627809,0.09843107291886323,0.005032742410004001,0.007565136004352371,0.2349587713855494,0.42024013995579834,0.28098346013813347,0.27257329187997836,0.3738608770295367,0.32796525405203186,0.16922192934036803,0.09851263739259039,0.18546325973068034,0.06157856396885297,0.24321479519323042,0.3578066187486342
0.23049734604476785,0.09946674234755384,0.005292408460043771,0.007722241662387918,0.2337990933681424,0.41856374136204255,0.2790958741385494,0.2728528648710854,0.3694483071252842,0.32322388648373895,0.17117069136986732,0.09923302987565483,0.18681519103037605,0.06238100065654887,0.248155157828319,0.3619696684070414
0.23268281743355004,0.10055210931358638,0.005588856486393323,0.007879636111098954,0.2326422883555652,0.4168307100037346,0.2771571244260065,0.27314909341508514,0.36497894027295,0.3184098715792611,0.17306612638822783,0.09997062306309602,0.18809223962340643,0.06319293065326778,0.25307337778925554,0.36601724700200117
0.2348091254352403,0.10168838054180479,0.0059209952656785894,0.008037192904061756,0.23148873778022408,0.4150440751671952,0.27516810122210134,0.2734627772715394,0.36045904317893407,0.3135323475513609,0.17490425357537578,0.1007262771434749,0.18929056480011872,0.06401478622129733,0.2579641780415017,0.3699414783302924
0.23687801217002147,0.10287672516527067,0.006287739479822642,0.008194782186691826,0.23033850343710144,0.4132069233957776,0.2731299392581729,0.2737944593986634,0.3558950089377045,0.3086002431946145,0.17668124616549008,0.10150082501441962,0.19040644948633653,0.06484697485938395,0.2628222052686733,0.3737349490719496
0.23889122950735336,0.10411822355710014,0.006688011480981572,0.00835226864888452,0.22919126970785567,0.41132252345734516,0.27104407176872614,0.2741444362240834,0.3512932105620766,0.3036221246930338,0.1783935133354012,0.10229501041091432,0.19143641617082552,0.0656898340519797,0.2676421598766036,0.3773907960161631
0.24085033847638446,0.10541381659770979,0.0071207413097211,0.008509508830208456,0.22804633145996586,0.40939439726961646,0.2689122571523594,0.2745127469318594,0.3466598422591514,0.298606090986504,0.1800377618573347,0.10310944196535368,0.19237732147710038,0.06654361054030355,0.272418909205281,0.3809027431000817
0.24275664312173154,0.10676428221694667,0.007584864888660518,0.0086663480541326,0.22690264444633024,0.40742633961007896,0.26673657645343,0.2748991436807,0.34200075585885753,0.29355976576524223,0.18161103293192665,0.10394458937773375,0.19322642273666876,0.06740847617086476,0.27714757736591256,0.38426508103811924
0.24461130856606464,0.10817025723068201,0.008079320396231176,0.008822618151380184,0.2257589146478588,0.4054223916686432,0.26451940032789234,0.27530304490544505,0.3373213149348276,0.2884903833825709,0.18311071048570213,0.10480082404298094,0.19398141092440602,0.06828456411961582,0.28182360591852174,0.3874725846278589
0.2464155807049116,0.10963228836869088,0.008603042950432259,0.008978137551776453,0.22461369564381178,0.40338677510439186,0.26226332497078464,0.275723473999458,0.3326263216644317,0.28340491245033256,0.18453449837482,0.10567847940354048,0.19464040575679195,0.06917200285540498,0.2864427807236181,0.39052036571423215
0.24817100225019906,0.11115088644066415,0.009154958880768754,0.009132714050327426,0.22346548161819596,0.401323794252465,0.2599710776596625,0.27615899600871996,0.3279200547485986,0.2783101698256737,0.1858803653429771,0.10657790837687091,0.19520191058001163,0.07007093904079542,0.29100122169492476,0.3934036631720484
0.24987958376894936,0.1127265729268436,0.009733982927676677,0.00928614905186116,0.22231279202295476,0.3992377145465548,0.257645394098535,0.2766076871593159,0.3232063830222262,0.2732129107026483,0.1871464581711785,0.10749952977563543,0.1956647268040903,0.07098154796570126,0.29549533378973397,0.3961175749714549
0.25154392005575155,0.11435991654231809,0.010339020733102795,0.009438242131337081,0.22115424378532916,0.39713262515593245,0.25528887153389035,0.2770671653464758,0.31848889175903244,0.26811989267081754,0.18833098514650076,0.10844386136535848,0.1960278299569478,0.07190403112527116,0.2999217193274992,0.39865678850017844
0.25316724568439675,0.11605155787759876,0.0109689749083811,0.00958879542581893,0.21998860705107956,0.3950122933709087,0.25290382231484837,0.27753466727788895,0.31377099227588867,0.26303791258247317,0.18943207796913072,0.10941153793358359,0.19629021179892936,0.07283860161331035,0.30427705354305196,0.4010154640055145
0.25475342733580886,0.11780222086564536,0.01162275157432175,0.009737617604076801,0.21881484081902525,0.3928800174900334,0.2504921956591254,0.2780071398279059,0.3090560101882649,0.25797381629601773,0.19044766918340644,0.11040331356471843,0.1964507188162917,0.07378545901259417,0.3085579270676707,0.4031873807135821
0.25630689426596637,0.11961271052406054,0.012299265833407538,0.009884527146306204,0.21763210545457592,0.39073849464955607,0.24805562310055154,0.2784813291007195,0.3043472515498111,0.2529344827699593,0.19137545654114888,0.11142004816831252,0.19650796986854224,0.07474475632593074,0.31276066830253785,0.40516625911203497
0.25783251186038647,0.1214838971251936,0.012997445486210372,0.01002935466752666,0.2164397499638192,0.38858974365384097,0.24559555708094927,0.2789538618937808,0.2996480467042449,0.2479267854480128,0.1922129887353872,0.11246267913040549,0.19646041834153596,0.07571656341121194,0.316881195155661,0.4069461107939588
0.2593354064547944,0.12341668760982487,0.013716232336284793,0.0101719440360552,0.2152372730397514,0.3864351157576618,0.24311342976329733,0.2794213150873891,0.29496177220519404,0.24295753524263036,0.19295782308531156,0.11353217968385206,0.1963065205146513,0.07670083687467943,0.32091497824117704,0.40852155109563504
0.2608207523462993,0.12541198563688227,0.014454580519763885,0.010312152074455598,0.2140242582104136,0.3842753732021495,0.24061079094344104,0.27988026839119184,0.2902918516046012,0.23803341052629584,0.19360768981044393,0.11462950617324835,0.1960449263019178,0.07769740920089188,0.32485714518327446,0.4098880552550833
0.26229355417331557,0.12747064211342574,0.015211451451211997,0.010449846684974213,0.2128002848509067,0.3821107863896401,0.23808941330842306,0.28032733605186894,0.2856417362706006,0.23316088023498466,0.19416063617960966,0.1157555367951548,0.1956746478499632,0.07870599849574475,0.3287026632518353,0.41104214119931815
0.2637585078174706,0.12959339834956266,0.0159858051945856,0.010584903313873266,0.211564818267052,0.37994122225024707,0.23555136003997643,0.2807591736236736,0.28101486768649975,0.22834612638308815,0.19461514246925551,0.11691101085673394,0.19519519217909434,0.07972622518969247,0.33244652741147407,0.4119814657598879
0.26522001581125654,0.13178082863215912,0.016776589799906507,0.010717199756930307,0.210317095267555,0.37776621994000903,0.23299901221856792,0.28117245674627794,0.276414622933003,0.22359497504056788,0.19497020281853916,0.11809649215051003,0.19460664945296768,0.080757622631988,0.33608392574203233,0.4127048259248079
0.26668232976600076,0.1340333010644243,0.0175827341675383,0.010846609407658579,0.20905605272432315,0.3755850557565905,0.2304350560685031,0.28156383004519014,0.2718442453010722,0.2189128521098675,0.1952253656844901,0.11931237711796527,0.19390973097201328,0.08179963761946124,0.3396103742726884,0.41321206235408225
0.26814972351905136,0.13635097656418474,0.01840315046618628,0.010972994300421809,0.20778034681807928,0.3733967992968603,0.22786243257971095,0.28192982571309405,0.2673067622527838,0.21430477749370835,0.19538073061889036,0.12055893909587208,0.19310575402141295,0.08285162112915699,0.34302181445331137,0.41350386841324016
0.2696266321197988,0.13873384322985036,0.01923674567479768,0.011096201794613458,0.20648845300220858,0.37120036260048245,0.22528425425293788,0.28226675295723314,0.2628048932585016,0.20977538862778586,0.1954369004119858,0.12183638301782027,0.19219657406528162,0.08391281034966774,0.3463146679930739,0.4135815139455404
0.27111773725568905,0.14118176484799502,0.02008243673173172,0.011216067848214599,0.20517879442977718,0.3689945433454905,0.22270369548410104,0.28257057583455,0.2583409621708772,0.20532896789990054,0.19539489014388195,0.12314489498519594,0.19118446821498544,0.08498230736814903,0.3494858455641876,0.41344649841635944
0.2726279943839954,0.14369452790536094,0.020939164897379518,0.01133242501875352,0.20384986179179096,0.3667780621555922,0.22012386431786296,0.28283683657028363,0.2539168548630429,0.20096945734539978,0.19525599719095524,0.12448468240864086,0.1900719771325462,0.08605906784710064,0.3525327078190012,0.4131001780888166
0.27416260117789854,0.1462718826064418,0.021805907265087097,0.011445111467520079,0.2025003127911997,0.36454959286182426,0.21754766978537854,0.2830606856898454,0.24953405474605048,0.19670045878010434,0.19502163857349814,0.12585600312687678,0.18886171528020032,0.08714190996691494,0.3554529792109077,0.4125434941600193
0.2757269114225333,0.14891357679180534,0.022681684073999037,0.011553979134153382,0.2011290471519953,0.3623077832870049,0.21497772118961764,0.2832370134868853,0.24519373644077114,0.19252522300423494,0.19469317451528187,0.1272591822850896,0.18755618547340402,0.0882295381258754,0.35824461714543415,0.41177695560109806
0.2773263027770901,0.1516193817532106,0.023565560731302716,0.011658900480118632,0.19973525433620365,0.36005126296481677,0.21241630770834447,0.2833606247822022,0.24089687379331112,0.18844663620584765,0.19427177456417383,0.12869461616978023,0.18615768372596,0.08932056950301147,0.36090564091741856,0.4108008824165792
0.2789660103933475,0.1543891089963402,0.024456643827554636,0.011759773333257815,0.19831843246225478,0.3577786333448602,0.20986546428100655,0.2834264132938542,0.23664433881808977,0.18446721784381473,0.1937584007628985,0.13016276264966317,0.18466835440540588,0.09041355759643863,0.363433926618115,0.4096157567670649
0.28065095880660396,0.15722261703424126,0.02535407089106491,0.011856523459529766,0.19687837820777193,0.3554884356383066,0.20732707460664968,0.2834295195047753,0.23243698525398857,0.18058913731563783,0.19315391764089304,0.13166411835993838,0.18309034544307656,0.0915070110339544,0.3658269934871913,0.40822254806365865
0.28238566318320346,0.1601198073379686,0.026256994128972748,0.011949104611997845,0.19541514868302218,0.35317909166817735,0.2048029647735687,0.2833654637647214,0.2282757134595735,0.1768142394616873,0.1924592587748839,0.13319918328336416,0.18142597270739755,0.09259940649514244,0.368081858158627,0.40662296739575743
0.2841742514136286,0.16308060866257,0.027164559565859805,0.012037495952469881,0.19392899734493718,0.3508488140035562,0.20229497344694597,0.283230247074734,0.2241615140674479,0.1731440651030321,0.19167558308425534,0.13476841391206093,0.17967785063317687,0.0936891947780847,0.37019504308429363,0.40481964147918204
0.2860205687280602,0.1661049491393601,0.028075887620720642,0.01212169689749634,0.1924202869694241,0.3484954833141586,0.1998049981539989,0.2830204130832739,0.22009548870249165,0.1695798612004128,0.19080439764030355,0.13637216669576793,0.17784898053911605,0.09477479918127514,0.3721627347963829,0.40281620120788686
0.2879282870445727,0.16919271580177792,0.028990066413973527,0.012201719596537553,0.1908893835053122,0.34611651475611727,0.19733501858810093,0.28273306625657624,0.21607884709633357,0.16612258006301728,0.18984764187568848,0.1380106371872254,0.1759427944358773,0.09585460547531421,0.37398100560136455,0.40061728476159736
0.28990097855233804,0.17234370160087775,0.02990616319337517,0.012277579395252031,0.18933653538603168,0.3437087886160776,0.1948870989611399,0.28236584294839284,0.2121128810394534,0.16277287088542197,0.1888077305092909,0.13968381245066633,0.17396315515518135,0.09692694284746012,0.37564602958598514,0.39822845978399574
0.2919421462451497,0.17555754046350758,0.030823246170158712,0.012349284698155688,0.1877617609083748,0.34126871733947206,0.19246337221693616,0.281916834149915,0.20819891673255725,0.1595310755251769,0.18768755499251477,0.1413914614495077,0.17191431639923804,0.097990055361258,0.3771542699615443,0.3956560731517593
0.2940552127585041,0.17883363749237371,0.03174040654703436,0.012416830205910865,0.18616480036781916,0.33879242967661566,0.19006600936335108,0.2813844609912987,0.2043382481564641,0.15639724286864531,0.18649044566113243,0.14313316813309873,0.16980084863094236,0.0990420666789906,0.37850263007373675,0.39290704009521804
0.2962434720011906,0.18217111924498933,0.03265677655494575,0.012480197685808582,0.18454516886506317,0.3362759971161371,0.18769717730687982,0.28076730650405174,0.2005320550029397,0.15337116348937646,0.18522009888413093,0.14490838500130104,0.16762753845289882,0.10008095198987503,0.37968856158795444,0.3899885867568328
0.2985100103446931,0.18556883425552076,0.033571542378798336,0.012539363668972668,0.1829022718652568,0.3337156533237213,0.18535898843087736,0.28006390961630095,0.19678131098928983,0.15045241402825998,0.18388047521051906,0.14671648495054143,0.16539927016374334,0.10110453919139578,0.38071012473783117,0.3869079616093662
0.3008576054421525,0.189025404870375,0.034483951239699016,0.012594309606050373,0.18123552614974492,0.3311079862636728,0.18305344481781735,0.2792725589854962,0.19308670385472823,0.14764040177770404,0.18247567574163454,0.14855680336583946,0.163120898498808,0.10211054706621023,0.38156599707830674,0.3836721457613607
0.3032886180525393,0.19253930272232997,0.03539331230826252,0.012645031093034626,0.17954446374979496,0.3284500889462434,0.18078237955717197,0.27839118869757407,0.18944860972010957,0.1449344053220221,0.1810098046616654,0.1504286683202597,0.16079712965868057,0.10309664616414084,0.38225542890085457,0.3802876404183838
0.305804912484683,0.19610892389850443,0.0362989915103516,0.012691545025777403,0.17782881461787042,0.3257396567779418,0.17854739708160383,0.2774174553906807,0.1858671426953366,0.14233360904188416,0.17948683332643525,0.15233141731291114,0.15843244700354983,0.10406052569312046,0.3827781453347445,0.37676043021705
0.30840784544476446,0.1997326543015903,0.03720040062077801,0.012733894293588992,0.17608856470781337,0.3229750227322022,0.17634981972292954,0.27634894776625146,0.18234224720134481,0.13983712970337184,0.17791050357106175,0.1542643996215459,0.15603111180065793,0.10499995858336367,0.38313419715184793,0.37309612739956993
0.3110983223222943,0.20340892046337158,0.038096981299595,0.012772149765586042,0.174323987260815,0.32015512567695376,0.1741906601137473,0.27518342440110954,0.1788737907226206,0.13744403382406994,0.1762843133147243,0.15622696402705374,0.15359722230040662,0.10591286019100353,0.38332376437362714,0.3693001917702458
0.31387688006801695,0.20713622130971243,0.03898818489832097,0.012806409482773383,0.1725356463765649,0.31727941177161934,0.17207063537589637,0.27391902617545894,0.17546164159378175,0.13515334500901702,0.17461158123405343,0.15821843234363334,0.15113478530518862,0.10679733579367937,0.3833469188852829,0.365378132506306
0.31674376316601216,0.21091313695732597,0.03987344894957459,0.01283679513458553,0.170724373314174,0.3143476734345912,0.16999021316475757,0.272554448371734,0.17210572969333215,0.13296404095267597,0.1728955401440202,0.16023805981917963,0.1486477720525123,0.10765171214787733,0.38320337944828764,0.36133566384893284
0.3196989832278956,0.21473831155618223,0.04075217288104967,0.012863446060445718,0.16889121732479612,0.3113598345798433,0.16794966708352085,0.27108906415752226,0.16880608888303994,0.13087504029092678,0.1711394175758578,0.16228498402029,0.14614015340184588,0.10847454899001241,0.3828923581658178,0.357178812888801
0.3227423615409106,0.21861040846305535,0.04162370040321037,0.012886511164352665,0.16703737406871982,0.30831570452418194,0.1659491294216556,0.2695229938885765,0.16556288096585528,0.12888517994718582,0.16934649211437372,0.16435816426235528,0.14361591616467928,0.10926462746300937,0.3824125990167553,0.3529139800119461
0.3258735546295761,0.22252803759801673,0.04248731768487052,0.01290613925349932,0.1651640957191098,0.30521477349706366,0.16398863859097304,0.26785711770531245,0.1623764017777012,0.1269931840387418,0.16752012564133242,0.1664563209654549,0.14107906319869756,0.11002091395387192,0.38176258876224983,0.3485479546027754
0.3290920633365803,0.22648965662164253,0.043342267843612135,0.012922469239470914,0.16327258762543997,0.30205616620577447,0.16206818020829597,0.2660930320315161,0.15924707073523506,0.1251976257803119,0.16566377310464475,0.1685779002498098,0.13853360031489248,0.11074249958792379,0.380940831377552,0.3440878902460786
0.33239722612533407,0.23049346127554898,0.04418777325794401,0.012935623770477155,0.16136390457210953,0.2988387915157156,0.1601877206028565,0.2642329536008659,0.15617540570949515,0.1234968890864346,0.16378097267423347,0.1707210852030357,0.13598351319065335,0.11142851745714119,0.3799461078799976,0.3395412448936309
0.33578819730921916,0.23453731229433425,0.045023058396641766,0.012945709649555605,0.1594388812779947,0.295561592490521,0.15834723144806115,0.26227957733453,0.1531619854801386,0.12188914816069807,0.16187532008250646,0.172883843800012,0.13343273742368122,0.11207804995936925,0.37877769519121857,0.3349156922555676
0.33926391079032975,0.23861874838732494,0.04584737082601799,0.012952823975499782,0.15749813452060565,0.29222378856810566,0.15654670428775036,0.260235896600434,0.15020740225740342,0.12037238100464817,0.15995043153338032,0.17506398719187352,0.130885124671919,0.11269006414310624,0.3774355328698804,0.3302190110599851
0.342823029718207,0.24273507823144988,0.04665999972688484,0.01295706183668731,0.15554213201816536,0.2888250695972287,0.15478615397976148,0.2581049959738297,0.14731220685788288,0.1189444100430206,0.158009899778897,0.17725922330062052,0.12834440755424267,0.11326341838050312,0.375920328810376,0.3254589588374327
0.3464638823294829,0.2468835003260438,0.04746029117527716,0.012958522709891887,0.1535712860237917,0.28536573287868816,0.15306561051249176,0.2558898369907243,0.14447684910686465,0.11760295045782145,0.1560572478145122,0.17946720134473798,0.1258141656658221,0.11379693962548293,0.37423359789922933,0.3206431365913543
0.35018438416691616,0.25106121164239653,0.04824765936013755,0.012957314806714849,0.1515860391290369,0.2818467578996041,0.15138509922239335,0.25359309419866394,0.1417016159733588,0.11634565457001482,0.1540958841674465,0.18168554499457462,0.12329779470602563,0.11428952943944311,0.37237763100293886,0.315778850186856
0.3539819473220383,0.2552654895468657,0.049021592857615245,0.01295355730669778,0.14958693271979318,0.2782698172173274,0.14974461007976322,0.25121712118959333,0.13898657759093974,0.11517014871625038,0.15212906300447052,0.18391187209172788,0.12079848074007023,0.1147402641356379,0.37035539532692763,0.3108729812634745
0.35785339289424023,0.2594937389650538,0.049781655088922086,0.012947380582541237,0.1475746564289325,0.27463722569415067,0.1481440573299213,0.24876405981682082,0.13633156584369566,0.11407406079658829,0.15015985134161322,0.1861437991520608,0.11831918304450088,0.11514847666989675,0.36817037089731675,0.3059319022334919
0.3617949130799881,0.2637434986199221,0.050527478187370474,0.012938924668409953,0.14555007781220997,0.2709518337564735,0.14658323129488643,0.24623601509563775,0.13373619978241955,0.11305503686869431,0.14819110458651613,0.18837892922388327,0.115862629297419,0.11551381596557111,0.365826331419908,0.3009614740077335
0.3658021165886019,0.2680124026507799,0.05125874971069674,0.012928336330886591,0.14351425232484144,0.2672168733205262,0.14506174459168122,0.2436352201525015,0.13119993886806616,0.11211074545437429,0.14622545057868117,0.1906148221159363,0.11343132115927941,0.11583628076234874,0.36332708081345444,0.29596712062153346
0.36987013360468135,0.272298096850774,0.05197519196107639,0.012915765161146434,0.14146841446612127,0.26343576729631896,0.14357898292608415,0.2409641669612025,0.12872213777554234,0.11123886864049277,0.14426528130658617,0.19284894657250418,0.11102754188825556,0.11611622658192143,0.36067617933984386,0.2909539332605326
0.37399373854079127,0.2765981119473309,0.05267653410193811,0.012901359110052276,0.13941395166122922,0.2596119150156118,0.1421340852049782,0.23822570013847838,0.1263020936540575,0.11043707962110616,0.1423127506568841,0.19507861467793483,0.10865335987073185,0.11635434589631875,0.3578767533568402,0.2859267666649614
0.37816747328110056,0.2809097135613521,0.05336247800089997,0.012885259837567269,0.13735236303990667,0.2557484889921817,0.14072596823886455,0.2354230728753344,0.12393908530914415,0.10970300704205795,0.14036977595515723,0.19730090478772097,0.10631062975531543,0.1165516229704236,0.3549314953428817,0.28089031808794374
0.3823857660025222,0.2852297921381942,0.054032665090468675,0.012867598156499625,0.13528520573335695,0.25184832570428045,0.13935337925311908,0.2325599657353886,0.12163240406160164,0.10903418734878846,0.1384380407311254,0.19951259960648346,0.10400099774000028,0.11670926605722934,0.35184284837736346,0.2758491883772817
0.38664303992592025,0.2895548688347734,0.054686662404096656,0.012848489738574928,0.1332140316318706,0.24791397067110435,0.1380149516246419,0.22964047052446998,0.11938137630199948,0.10842801513522475,0.13651899609798068,0.20171018027728682,0.10172591484042943,0.11682862061051018,0.3486132620306235,0.27080792527369074
0.3909338058261838,0.2938812212157671,0.05532397945381746,0.012828031190600827,0.13114031772105506,0.24394783127167807,0.13670925499707137,0.22666904270853683,0.11718537799205592,0.1078817189758491,0.13461385836476047,0.20388988892651125,0.09948665525581571,0.11691106792966172,0.34524542717089485,0.2657710495114117
0.3952527318999646,0.2982050595115383,0.05594410483427331,0.012806296989687481,0.12906539731726346,0.239952345590714,0.13543483891053523,0.22365042691470208,0.11504384156458591,0.10739238397075554,0.1327236020167892,0.20604782942145655,0.09728433482738673,0.11695792314200218,0.3417424602578264,0.26074306476742826
0.39959468472632287,0.3025226918321803,0.05654654507629641,0.0127833384032298,0.12699041242902723,0.2359301210088832,0.1341902692708008,0.22058956087274698,0.11295625584149133,0.10695700751004009,0.13084895312946931,0.20818007284021944,0.0951199267379249,0.1169703695470737,0.3381080308116558,0.2557284529235302
0.403954735612957,0.3068306535413551,0.05713085844548076,0.01275918493950748,0.12491631147932644,0.2318840338170215,0.1329741570837669,0.21749146371639944,0.11092215972476738,0.10657255999029237,0.1289903951402206,0.21028275356939466,0.09299427290188406,0.11694946581037027,0.33434642898992384,0.25073165646295115
0.40832812762828685,0.3111257900547949,0.05769668182943147,0.012733847377069773,0.1228438919412386,0.22781728884478358,0.13178517891119607,0.2143611148395325,0.10894113051808078,0.1062360353873716,0.12714819442087452,0.21235214997200022,0.09090808981523935,0.11689621682985721,0.3304625734172301,0.2457570500952792
0.4127102000748825,0.3154052851989385,0.05824374930260509,0.012707321192565473,0.12077386155132094,0.22373344007957985,0.13062208849391,0.21120332947639267,0.10701276780350155,0.1059444865339219,0.12532244059278017,0.21438474390056184,0.08886196806317025,0.11681166532092485,0.326461962406626,0.24080890386321874
0.41709626902353863,0.31966663076752816,0.05877190148150612,0.012679589998959094,0.11870689588784547,0.21963637496567326,0.12948371897815647,0.20802264804019674,0.10513667382613251,0.10569504183210439,0.12351309276727987,0.21637725402124144,0.08685636519287422,0.11669697360616543,0.3223505743254893,0.23589134001179973
0.4214814647216495,0.32390753678155215,0.0592810853298952,0.01265062893770202,0.11664368574294344,0.21553026648680004,0.12836897520787866,0.20482327857360572,0.10331243132690522,0.10548490136413147,0.12172002691393581,0.21832663893463516,0.08489159421775787,0.11655348618546955,0.31813472497674133,0.2310082857869905
0.42586053146864833,0.32812578589008484,0.059771344596022596,0.012620407923585398,0.11458497351701351,0.21141949824275036,0.12727681564172785,0.20160911841219267,0.10153957971097459,0.1053113118181639,0.11994308149032354,0.22023006737818018,0.08296781642183425,0.11638277021484701,0.31382089141477454,0.2261634240860499
0.4302276349003409,0.3323190390410397,0.06024280152784692,0.01258889460798789,0.11253157831491233,0.20730856853276852,0.1262062236396856,0.19838382779941707,0.0998175903474129,0.1051715211964958,0.11818209841267646,0.22208485431374486,0.08108504936741188,0.11618663211607083,0.30941551256430316,0.22136014353488054
0.4345762864956323,0.33648462829888726,0.06069563089776879,0.012556056907984621,0.11048440983731612,0.20320197995394917,0.12515616814921807,0.1951509087167458,0.09814584166805272,0.10506271710266521,0.11643695665594012,0.22388836337880896,0.07924319146811976,0.11596710980436557,0.3049247851251721,0.21660148929048392
0.438899455768945,0.3406194338818922,0.06113002766586877,0.012521864945980562,0.10844447152048292,0.19910412120284834,0.12412555420345425,0.19191376738142632,0.09652359457527035,0.10498196663875477,0.11470759620968451,0.22563787794871082,0.07744205445220403,0.11572644140942903,0.300354506079662,0.2118901223052377
0.4431898059692141,0.34471993137355134,0.06154616981608485,0.012486292256114414,0.10641285367280394,0.19501915584799215,0.12311316554521945,0.1886757578873745,0.094949968491242,0.10492619586450054,0.11299403072303286,0.22733046286259115,0.07568139565016745,0.11546701279699377,0.2957100366165143,0.20722830722610205
0.4474399516353689,0.3487823770972807,0.06194418008412207,0.012449316137356692,0.1043907175837091,0.1909509530661874,0.12211761359907639,0.185440208047957,0.0934239207215834,0.10489223020182564,0.11129634787339356,0.22896288349743,0.07396094665164532,0.11519128756551697,0.2909964026618985,0.20261794094710864
0.4516426951408094,0.35280303207569874,0.062324097397177494,0.012410917065961959,0.10237927174309068,0.18690309253936918,0.12113732323143483,0.1822104293569659,0.09194423718312437,0.1048768715349243,0.10961469721458267,0.23053164571272539,0.07228043670122798,0.1149017243697276,0.2862184591368941,0.1980606066345626
0.4557912298986538,0.35677836305959465,0.0626858722146119,0.012371077118443277,0.10037974141614643,0.1828789304197061,0.12017057181556418,0.1789897136255919,0.09050954086094175,0.10487697655274895,0.10794926593457227,0.23203313983589335,0.07063960966386083,0.11460069280688633,0.28138104438669237,0.1935576320704233
0.4598792991276711,0.36070520129131384,0.06302938735875024,0.01232977739741964,0.09839333288195251,0.17888168147641334,0.11921556150667544,0.17578131925408286,0.0891183136213494,0.10488952118504348,0.10630024353691357,0.2334638211068582,0.0690382339428021,0.11429041471105676,0.2764891011030759,0.18911014503605603
0.4639013009322929,0.36458085024493975,0.06335449066662167,0.012286994493976362,0.09642119367798542,0.1749144874220496,0.11827049652001322,0.17258845025474814,0.08776892248671848,0.1049116466914058,0.10466777693466615,0.23482038186235102,0.06747610530433104,0.11397295834831976,0.27154776150865045,0.18471912502008755
0.46785233280180605,0.3684031364806051,0.0636610268413085,0.012242696059764368,0.09446437020896148,0.17098046453476923,0.11733365380171845,0.16941423107458622,0.08645964620259512,0.1049406841547959,0.10305191859700508,0.23609989921939636,0.06595304307958391,0.11365027972395675,0.2665623963019795,0.18038545022119845
0.4717281713330847,0.3721704008330729,0.0639488644597097,0.012196835788392776,0.09252376969871466,0.16708273106544624,0.1164034435695624,0.1662616800011777,0.08518870155831541,0.10497415552694832,0.10145257978170218,0.23729994889211878,0.06446888061235898,0.1133242766274692,0.26153862847313475,0.17610993855013288
0.47552518586777154,0.3758814302457296,0.06421791743529351,0.012149349175794577,0.09060014456467926,0.16322441602783083,0.11547845646066926,0.16313368351326635,0.08395426933272691,0.10500975086982821,0.09986951516120343,0.23841867719351983,0.063023451061443,0.11299682915325043,0.25648231453005166,0.1718933811721963
0.47924018765151105,0.37953533349732743,0.06446816042103819,0.012100152591138752,0.08869411090425776,0.15940865188241435,0.11455749451654107,0.1600329734012237,0.08275451956981338,0.10504528292952327,0.09830235351939669,0.23945482530669082,0.06161656973339511,0.11266981935266338,0.2513994968821534,0.1677365671117106
0.4828702189275763,0.3831313667099997,0.06469963781064866,0.012049146788477134,0.086806188740842,0.15563855428177917,0.11363958394458426,0.1569621078786334,0.08158763573544979,0.10507862156581238,0.09675065641955753,0.24040770245608517,0.0602480140313776,0.1123451299504886,0.24629633207903567,0.1636402975816068
0.4864122889530078,0.38666871676042597,0.06491246616150044,0.011996223079450167,0.08493684491847987,0.15191719241239993,0.11272396848454393,0.15392345728181298,0.08045183718399539,0.10510761251733773,0.09521397925006816,0.24127710751231723,0.05891750189738514,0.11202462376333681,0.24117900028386607,0.15960538900208043
0.48986307226534836,0.3901462624996501,0.06510683002887123,0.011941269921643547,0.08308653103017817,0.14824755354099425,0.11181008322543724,0.1509191943552384,0.0793453992796659,0.10512999969254774,0.09369192441143996,0.24206320162214237,0.05762467081854175,0.11171010698818061,0.236053601770927,0.15563266411224827
0.49321863842450075,0.39356237942335615,0.06528297137465632,0.011884179038480429,0.08125571516489773,0.14463250517898696,0.11089750979647292,0.14795128858930623,0.07826667047010065,0.10514339396936274,0.0921841840887475,0.24276633744132006,0.056369063949393165,0.1114032807463775,0.23092604637831157,0.15172293112562313
0.4964743566058759,0.39691489118107187,0.06544117289747844,0.011824850802817527,0.0794449066766181,0.141074757867423,0.1099859149155287,0.1450215036468275,0.07721408558955817,0.10514531412075484,0.09069057045305137,0.24338685323234183,0.055150131904536305,0.11110569208383461,0.22580194906976528,0.14787695149313407
0.49962505063342916,0.40020120016506733,0.06558173582173497,0.0117631986200181,0.07765467341310474,0.13757683102243826,0.10907497523784279,0.1421313966097448,0.07618617466892207,0.1051332720518563,0.0892110317160692,0.2439248729253252,0.053967251037095175,0.11081870763109346,0.22068656390407784,0.1440953974700398
0.5026653060122731,0.4034185124186101,0.06570495287162868,0.011699152063229233,0.07588565111430517,0.13414102363804964,0.10816429737717195,0.13928231760890866,0.07518156654915491,0.10510486119984212,0.08774565319584485,0.24438021491240283,0.05281975015194745,0.11054352457036452,0.21558478834167147,0.1403788012856604
0.5055897942099585,0.4065640631719917,0.06581107732905378,0.011632658546520775,0.07413854499507225,0.13076939218781763,0.10725335924846763,0.13647540836573052,0.07419898664482195,0.10505783181662058,0.08629464338644906,0.2447524770126143,0.05170693839303597,0.11028120389866031,0.2105012283212863,0.13672750359869332
0.5083935613352972,0.4096353089131628,0.0659002907249837,0.011563683371999676,0.07241412385255357,0.1274637399713374,0.10634150589497063,0.1337115982629983,0.07323724830371543,0.1049901498299862,0.0848583058963282,0.2450412328993979,0.050628131749259786,0.11003270096159871,0.2054402819130407,0.1331416230290021
0.5110722683522416,0.41263007821384395,0.06597267780892674,0.011492208054746444,0.07071320736479134,0.1242256199625631,0.10542800250266922,0.13099159675489588,0.07229523737683999,0.10490003689946283,0.08343699895807824,0.24524623731039974,0.04958267711052047,0.10979888173423562,0.20040621154780203,0.12962106869137088
0.5136223715267701,0.41554667532468204,0.0660282217172299,0.01141822691194672,0.06903664754605296,0.12105634595593272,0.10451211235772427,0.1283158824656819,0.07137188986079666,0.10478599019756205,0.08203108495208344,0.24536759820333182,0.048569972579878135,0.10958052299939698,0.1954031975250966,0.12616559080006295
0.5160412338949112,0.4183839325073414,0.06606682245082406,0.01134174199519667,0.06738530556568186,0.11795700404073503,0.1035931704282231,0.12568469509985267,0.07046616279678337,0.10464678130810573,0.08064087473046218,0.24540590778738203,0.04758948266277223,0.1093782968141425,0.19043537309481384,0.12277484428763129
0.5183271611028697,0.4211412091101935,0.06608832735027398,0.011262756541122056,0.06576002529481592,0.11492846079979566,0.10267064271196608,0.12309804178829617,0.06957699898340118,0.10448143442396171,0.07926658140015468,0.2453623274245062,0.046640747045670075,0.10919274109817467,0.18550684233973777,0.1194484476010632
0.520479357927092,0.4238183374427842,0.06609256194413157,0.01118126741941286,0.06416160500454453,0.11197136869426466,0.10174416921399523,0.12055572349597606,0.06870328731448591,0.10428918475538777,0.07790830768323324,0.2452386241669829,0.04572338194829621,0.10902422629109522,0.1806216828214522,0.11618603130619377
0.5224978050413785,0.42641551749258616,0.06607935721783517,0.01109725853737029,0.06259076901981712,0.1090861700988979,0.10081358934571373,0.11805737513893735,0.06784382804469212,0.10406941874797034,0.0765660749125008,0.24503715939349968,0.0448370734609474,0.10887294203988486,0.1757839354564122,0.11298727503599779
0.524383059058777,0.4289331643923377,0.06604857254056815,0.011010698905446745,0.06104814478187353,0.10627310143561489,0.09987894948348505,0.11560251082265315,0.06699732234672914,0.10382159837483437,0.0752398727377941,0.24476083243284663,0.043981562815830745,0.10873892032198117,0.17099758435377724,0.10985193193729084
0.52613598242183,0.4313717142315378,0.06600011362202751,0.01092154705683761,0.05953425559820627,0.10353219871017605,0.09894049333078377,0.11319057023863281,0.06616239614705273,0.1035451730729512,0.07392970581407522,0.24441298408098336,0.043156624132093195,0.10862208241628972,0.1662665293890496,0.10677984039779499
0.5277574132007995,0.43373139526328175,0.0659339450000967,0.010829759075434254,0.058049533184715035,0.1008633054879692,0.09799863654511627,0.11082096409722797,0.06533764464175791,0.10323949760750031,0.07263562909600348,0.2439972664438014,0.04236203575779133,0.1085222878500454,0.16159455414546817,0.1037709234342004
0.5292478084991391,0.4360119896734612,0.06585009668234171,0.010735296721651418,0.056594340721275574,0.0982660839685648,0.09705392778254246,0.10849311616117996,0.06452167925981436,0.10290379913457151,0.07135777062507179,0.24351748655064911,0.04159754920343332,0.10843937538187992,0.1569852915795069,0.10082517666110777
0.5306069709345074,0.43821266364599504,0.06574866468228434,0.010638134289677529,0.055168995587679785,0.09574002937169583,0.0961069988541927,0.10620649928326854,0.06371317020469112,0.10253721970867502,0.07009634155700815,0.24297743170358996,0.04086286707929367,0.10837319283963967,0.15244218941237986,0.09794264621678148
0.531834010450657,0.4403319611996947,0.06562980531243082,0.01053826387298171,0.0537737884547418,0.09328448737956355,0.09515850706300995,0.10396066288601355,0.06291088324490679,0.10213890555266661,0.06885163398939351,0.24238069591448555,0.040157643419132895,0.108323613361438,0.14796847686518533,0.09512339837769664
0.5329275688947649,0.4423679661187116,0.06549372322828591,0.010435698804021563,0.05240899889935267,0.09089867394653105,0.09420907297893939,0.1017552495809564,0.06211370967333437,0.10170810040219871,0.06762400783902923,0.24173055974139923,0.03948150624707206,0.10829053649173004,0.14356713543230085,0.09236748283993708
0.5338861700545406,0.44431854011106836,0.06534065336791502,0.010330475135995668,0.051074907851739806,0.08858169643791652,0.09325922120460195,0.09958999911717258,0.06132068861263934,0.10124422574120755,0.0664138685359161,0.2410299830858848,0.038834088523760905,0.1082738736148021,0.13924088093663084,0.0896748917778642
0.5347085594844783,0.4461815572062426,0.06517083710342218,0.010222651141985254,0.049771807252860914,0.08633257483360099,0.09230934248109225,0.0974647385537588,0.060531021097601403,0.1007469439509557,0.06522163762581748,0.24028170689963402,0.03821505561870669,0.10827351829716342,0.13499216573324643,0.08704551815636806
0.5353939854631425,0.4479551071542364,0.0649844931129877,0.01011230491259997,0.04850000729753368,0.0841502616507511,0.09135969456589774,0.09537935842049086,0.05974407561190589,0.10021620123627833,0.06404771851375435,0.23948839858141754,0.037624125335912785,0.10828930317049316,0.1308232000944784,0.08447912349184873
0.5359424086502497,0.4496376595327887,0.06478178394007372,0.009999530230458815,0.04725984156848477,0.08203365930290589,0.09041043598629396,0.0933337755906595,0.058959385001199474,0.09965224827334619,0.06289245994913063,0.2386527883402547,0.03706107961859126,0.10832094881828934,0.12673598105983325,0.08197533132863748
0.5363546319068224,0.4512281813533273,0.06456278494388823,0.009884430982745907,0.04605167023925891,0.07998163379772798,0.08946166988331154,0.0913278845501947,0.058176634930503845,0.0990556377681946,0.06175612463133972,0.23777778090474166,0.03652576762602564,0.10836802215610428,0.12273231910685702,0.07953365093716
0.5366323459948,0.4527262022952014,0.06432747232107215,0.009767114437437321,0.04487588136102101,0.07799302394297805,0.08851348260974712,0.08936150333740181,0.05739564430382441,0.09842719942830241,0.060638877453836594,0.23686654006060176,0.03601810043034642,0.10842992986993351,0.11881386026948643,0.07715351593503776
0.5367780911819238,0.454131823292267,0.0640757407586547,0.00964768381915675,0.04373289008191631,0.07606664553207565,0.08756597376844691,0.08743433356198589,0.05661633831376437,0.09776799412650711,0.05954080019156723,0.235922544497322,0.03553803809061335,0.10850595359452248,0.11498210399433452,0.07483432152372615
0.5367951388693085,0.4554456660446294,0.06380744022169724,0.009526231694786233,0.04262313551738945,0.07420129027423324,0.08661927814136491,0.0855459599055751,0.05583871503220072,0.0970792501783181,0.05846192063813213,0.23494961438276585,0.03508557030489054,0.10859530578081525,0.11123841708279794,0.07257545513086669
0.5366873010037896,0.4566687631217527,0.06352241578039573,0.009402837356553628,0.04154707493384821,0.07239571949207965,0.08567358030217827,0.08369589215705264,0.05506280668020325,0.09636228557621493,0.05740224107347754,0.23395190894616447,0.034660692203347804,0.10869718391391697,0.10758404409335653,0.07037632013718884
0.5364586780598066,0.4578023906361401,0.06322054397663182,0.009277569869557722,0.040505174952577695,0.07064865282302812,0.08472912285867079,0.08188362584681555,0.0542886369156381,0.09561842066607289,0.056361760887644795,0.2329338961363967,0.034263378316095106,0.10881081479472139,0.10402011458370815,0.06823635263467401
0.5361133586589072,0.45884784795160166,0.06290176411213808,0.009150494349961132,0.039497899632362235,0.06895875233521323,0.08378620924720417,0.08010869879896262,0.053516180411253896,0.09484889631194585,0.05534049302977639,0.23190029614896646,0.033893562360283624,0.10893548682046199,0.10054764756862486,0.06615503138083426
0.5356550853795918,0.4598061914691392,0.06256610294378451,0.009021678213142788,0.03852569553159884,0.06732460261693424,0.08284520183858625,0.0783707353963941,0.05274534152679031,0.09405483309659268,0.054338474254576184,0.23085600129880793,0.03355113281546397,0.10907056892936637,0.09716755356849026,0.06413188128630899
0.5350869433970455,0.46067796722056925,0.06221369146609528,0.008891196198980295,0.037588974147043715,0.06574469011849357,0.0819065158691592,0.07666947632933858,0.05197596539355716,0.09323725510232554,0.05335576941620502,0.2298059753636844,0.03323594533046326,0.1092155155846044,0.09388063463302967,0.06216647091164715
0.5344112109459189,0.4614630668467738,0.06184477274819777,0.008759134018769047,0.03668809516007604,0.06421739168534907,0.08097060944617976,0.0750047924896355,0.05120787303353363,0.09239715542421063,0.05239247029499175,0.22875513612531667,0.032947841584224515,0.10936985782235173,0.09068758274502453,0.06025840456910277
0.5336294631492046,0.46216081017856797,0.06145970016508876,0.0086255905408953,0.03582335957939418,0.06274098240317867,0.08003796965003321,0.07337668266639896,0.05044090206322287,0.09153556535041518,0.051448689617095644,0.22770822537094862,0.03268666477780796,0.10953318095426867,0.08758897703215109,0.058407309738300724
0.5327428394255294,0.46277020131157276,0.06105892580632863,0.00849067850510719,0.03499501886591854,0.06131366091683265,0.07910909461023706,0.07178525573266031,0.04967494314020994,0.09065361056103942,0.05052455102876392,0.22666968837174822,0.03245226869817924,0.10970508998740011,0.08458528022857265,0.05661282061486493
0.5317523295727842,0.46329022835080946,0.06064297933650118,0.008354523824566225,0.03420329426082493,0.05993358173421541,0.07818447139188493,0.0702306990178074,0.04890996978333007,0.08975255173201688,0.049620175814042704,0.22564361939718866,0.03224452035856379,0.10988516420967886,0.08167683481806765,0.05487455871367785
0.5306590182180234,0.463720133622406,0.06021243809199329,0.008217263597729904,0.03344839694924251,0.058598887200255106,0.07726454960127531,0.0687132354633837,0.04814606067113317,0.08883380899507456,0.04873566710970141,0.2246338102765626,0.03206329684924866,0.11007290270399529,0.07886385924861941,0.0531921115309892
0.529464277806482,0.4640596316201453,0.059767889694003346,0.008079043005991755,0.03273054517297927,0.05730773682965424,0.07634971079744646,0.06723307288850913,0.047383413856481135,0.0878989705850983,0.04787109229506858,0.22364386476233836,0.03190847757622442,0.11026766956389025,0.07614644453435371,0.05156501031569833
0.5281699052938852,0.4643090619724368,0.059309889971256316,0.007940011315972825,0.03204997763619956,0.056058333016925734,0.0754402374242669,0.0657903550114567,0.04662235269393924,0.08694978679484744,0.04702646414137346,0.22267732004065552,0.03177993344861576,0.1104686632123241,0.07352455146278365,0.049992710315968004
0.5267781999487967,0.46446946793392674,0.05883892657353994,0.0078003172360628144,0.03140696291153909,0.05484894219036326,0.07453629405621552,0.06438513589008582,0.04586332363843558,0.0859881510137834,0.046201723818759595,0.22173775141285448,0.03167751474831847,0.11067493110248468,0.07099800851680618,0.048474581575651224
0.5252919818091775,0.4645425949359619,0.05835540757332045,0.0076601039453904705,0.030801804773918213,0.053677910543973945,0.07363793469112638,0.063017392462415,0.04510688641555494,0.08501607012118371,0.045396734046871466,0.2208288555043922,0.03160103935923003,0.11088542080320758,0.06856651051556284,0.04700991575709676
0.5237145523185218,0.46453080829834625,0.05785968349541964,0.007519504789521339,0.030234843564970252,0.05254367357733734,0.07274513412157284,0.061687061669986255,0.04435369736610553,0.08403562681354307,0.044611288028464306,0.2199545087381668,0.03155028276838484,0.11109904194679968,0.06622961798851318,0.04559794360828128
0.5220496004604445,0.46443693396250635,0.057352087793100213,0.007378641638900604,0.02970645382742216,0.05144475880879805,0.07185782902509305,0.06039407790988239,0.04360448701621814,0.08304893656694912,0.0438451289583961,0.21911879884062213,0.03152497082780809,0.11131472375144627,0.06398675787351296,0.04423785373823289
0.5203010593008923,0.4642640306701449,0.05683297709283574,0.007237626854659477,0.02921703855803079,0.05037978121112676,0.07097595801494987,0.05913839898314009,0.04286003311121729,0.08205810187744299,0.04309797166548397,0.2183260283657894,0.031524775753016446,0.11153146318034235,0.061837226871704655,0.042928808472255206
0.5184729192292764,0.46401510601417517,0.05630276423408859,0.007096567207324159,0.028767020520103367,0.049347431155031346,0.07009949671928507,0.05792001830760916,0.04212113047343817,0.08106516621214947,0.04236952297172,0.21758069057523785,0.031549315304472754,0.11174836090434201,0.05978019795513543,0.041669956358075876
0.5165690053631683,0.46369281006537233,0.055761942824814975,0.006955567644212237,0.028356831135597872,0.04834645493346497,0.0692284859364274,0.05673896334416605,0.04138855910032046,0.08007207239844556,0.041659500105869385,0.21688741942508438,0.03159815461644456,0.11196464257825532,0.057814728759686136,0.04046044156482736
0.5145927275435966,0.4632992039172388,0.0552111025635217,0.006814734164227162,0.027986897538742332,0.04737562827158009,0.06836305113192283,0.05559528122098456,0.040663055273518475,0.07908063646085135,0.04096764653282139,0.21625091678202013,0.03167080975325916,0.11217966349399203,0.05593977051456501,0.0392994105322162
