EMG01_right_gast_med,EMG02_right_glut_max,EMG03_left_gast_med,EMG04_left_glut_max,EMG05_right_glut_med,EMG06_right_bic_fem,EMG07_right_rect_fem,EMG08_right_vast_lat,EMG09_right_vast_med,EMG10_right_tens_fasc_lat,EMG11_left_glut_med,EMG12_left_bic_fem,EMG13_left_rect_fem,EMG14_left_vast_lat,EMG15_left_vast_med,EMG16_left_tens_fasc_lat
0.002497982293633281,0.00727198540466842,-0.005019818849376179,0.004134448825496091,-0.10243792399293537,-0.0010677063978691897,-0.011941799308609946,-0.004023909259734535,-0.009508126815603197,0.023497454904017914,0.006419165797836061,0.011698957923174907,0.00702501672385575,0.08210613092116838,0.1678374801121326,-0.02197053071628827
0.0024953697891376713,0.007391953964042433,-0.001941670115918503,0.0041599918156311,-0.09478900729146629,-0.0005040362354170847,-0.008640834304667907,-0.0018874414367858324,-0.009177031455281676,0.02396597682895258,0.00750759900396782,0.01292076841141021,0.008217869176506626,0.08655746499303453,0.16819609355856038,-0.019548826937587877
0.0024933001298315933,0.0075072433744251725,0.0011412988674649308,0.004185982710376407,-0.08718821722473075,6.0069180287473796e-05,-0.005349368672869084,0.00024367739410982938,-0.008840036251360517,0.024441591218626407,0.008603180879550476,0.014152038988511003,0.009425819682242393,0.09102585866445936,0.16858204825369655,-0.01714616353479691
0.002491794448214942,0.007617271830376868,0.0042246626403126,0.0042123861143817205,-0.079648305523935,0.0006237435833986445,-0.0020715327100089324,0.00236707563047888,-0.00849721487474166,0.02492337338372505,0.009704658192254238,0.015391428775310894,0.010648295472522287,0.0955077422025892,0.1689963594469655,-0.014766993867985318
0.0024908704458523655,0.007721551725160575,0.0073044201413771355,0.004239164342739548,-0.07218102986955055,0.0011861833764368293,0.0011886999161076282,0.004480461633677256,-0.008148596129114533,0.025410505357190232,0.01081087505597746,0.01663764739926032,0.011884713598824212,0.09999941997953311,0.16943988403671928,-0.012415421163733906
0.002490541996974693,0.007819709202442895,0.010377100915302204,0.004266280177197926,-0.06479691277619519,0.001746665395655856,0.004427564080346142,0.006581663858306526,-0.007794154139986565,0.025902322120437606,0.011920812678280138,0.01788947722386716,0.01313448180626036,0.10449706605743028,0.16991327619418964,-0.010095105872313659
0.0024908189264540572,0.007911491884324339,0.013439804325329636,0.004293698806431209,-0.057505110611159406,0.0023045553984580545,0.007641543099969132,0.00866866880698129,-0.007433801405987407,0.026398332249111582,0.0130336138821388,0.019145785272686386,0.014397006123747492,0.10899676049842362,0.17041694045823277,-0.007809217022772331
0.002491706855983705,0.00799676684706983,0.01649018579771079,0.004321388404625551,-0.05031337822612473,0.0028593082761814957,0.01082739609298608,0.010739651301841773,-0.00706738502589577,0.026898213000766,0.014148590443165581,0.02040552512873328,0.015671702537344144,0.11349454761501247,0.17095099237220057,-0.005560422649066621
0.0024932070432498485,0.008075510771476448,0.01952640641766093,0.004349319593123205,-0.04322811498635444,0.003410461121321434,0.013982174079377631,0.012792996734144755,-0.006694686009635919,0.02740178478592718,0.015265215114715994,0.021667729418301352,0.01695800823485398,0.11798649702490394,0.17151524635115026,-0.003350912684079646
0.002495316189527343,0.008147794256305482,0.022547060611203235,0.004377464043370257,-0.03625447641921914,0.0039576205379458105,0.01710322593997587,0.0148273150403577,-0.006315421456308247,0.027908970341502706,0.01638310089515308,0.022931493913576007,0.018255389801607,0.12246875962412941,0.1721092399384439,-0.0011824475182883735
0.0024980263091035114,0.008213762289936862,0.025551094831988037,0.0044057924826653334,-0.02939653462265505,0.0045004457723264064,0.02018819520520866,0.016841446299185034,-0.00592924926861929,0.028419744619769653,0.017501970607440215,0.02419595464998261,0.019563347041515057,0.12693761502967235,0.1727322801434194,0.0009435747137443965
0.0025013248327685083,0.008273612646065713,0.028537726710525835,0.004434272328739083,-0.02265747162895814,0.005038629214250764,0.02323500829559248,0.01883445794360326,-0.005535775008480316,0.02893408792953308,0.0186216199743449,0.025460259932934118,0.020881411662181954,0.13138950743957548,0.17338349382065318,0.003026038325913886
0.002505195004023808,0.008327573763802254,0.031506371345926376,0.004462865388376435,-0.016039790832730823,0.005571877862612267,0.02624185465305888,0.020805633759581898,-0.005134560441195681,0.029451965069227995,0.019741878425503963,0.026723543580140643,0.02220914055022407,0.13582106734984792,0.17406187556837385,0.005064023459401733
0.002509616463585127,0.008375884894257257,0.03445657922166896,0.004491526541395823,-0.00954553256242381,0.006099903347198171,0.029207159162011408,0.022754455070607124,-0.0047251332726096235,0.029973341619602904,0.020862576781254888,0.027984912800302398,0.023546103778431336,0.14022911714715106,0.1747663318267039,0.007056723763443288
0.002514565899506152,0.008418784114490426,0.03738798774702232,0.0045202040842329564,-0.003176466575409997,0.0066224251828742985,0.03212954721113005,0.02468057471030734,-0.004306996773987153,0.030498220178798705,0.021983534593968127,0.029243458349456842,0.02489186790615541,0.14461065929821298,0.1754957197639816,0.009003392713280928
0.002520017693773002,0.008456508183393994,0.04030028632374982,0.0045488412652419175,0.003065794195396421,0.00713918216935661,0.03500780278644491,0.02658378458621622,-0.0038796360757423027,0.031026674004472603,0.023104569663344062,0.030498278111739482,0.026245977808896585,0.14896284661022163,0.17624887947667583,0.010903339491737107
0.002525944515613212,0.008489300676328046,0.04319319340841087,0.00457737805608379,0.009179793045499237,0.007649944012279071,0.03784082014565746,0.028463977837725505,-0.003442518225862418,0.031558870079937004,0.02422551675684605,0.03174850135919493,0.02760794562402203,0.1532829347892484,0.17702465801363082,0.01275596420481186
0.002532317811724452,0.008517421237979933,0.046066442902296535,0.004605752687846966,0.015164300149292854,0.008154519960097372,0.04062754982268776,0.030321106753913484,-0.0029950871228070913,0.03209508111771829,0.025346242397495406,0.032993308701214086,0.028977253965231962,0.1575682182663308,0.17782192377994266,0.014560802342231206
0.0025391081473484195,0.008541152145654695,0.048919776405069754,0.004633902885591857,0.021018385691629848,0.008652764183907993,0.043366945047185454,0.03215513960592262,-0.0025367569898094356,0.032635686866311395,0.026466651735849486,0.03423194674669775,0.030353370122692257,0.16181595095653387,0.1786395699924831,0.016317559301882577
0.0025462853600624197,0.00856080170710364,0.05175293757557247,0.004661766812455792,0.026741464166760227,0.009144578024289635,0.04605792751987792,0.0339660268286372,-0.002066906737552803,0.033181165786822155,0.027586687692584405,0.03546373681255473,0.031735762732468364,0.1660232550065175,0.17947650605836035,0.018026130573423508
0.0025538184990493234,0.008576704851175317,0.05456566491332003,0.00468928374326007,0.03233330724794165,0.009629909384143468,0.048699391203619706,0.035753691755658776,-0.0015848758108636825,0.03373207871448724,0.0287063231040677,0.036688077336647286,0.0331239159843442,0.17018703508528513,0.1803316360327291,0.01968660757524898
0.002561675535367914,0.008589221376464869,0.05735767962268167,0.004716394490884844,0.03779402847064301,0.010108749650612274,0.051290239399270646,0.03751804906046875,-0.0010899616165667516,0.034289046505282576,0.029825547063159246,0.03790443997638981,0.034517339719102536,0.17430394023459148,0.18120382368167096,0.02129926983282453
0.0025698228428454647,0.008598732379576868,0.060128665878134605,0.00474304160602841,0.04312404433521622,0.010581128577902086,0.05382943455773204,0.0392590370620707,-0.0005814185504912539,0.03485272385288245,0.030944346987686805,0.03911235967286327,0.03591557448167018,0.1783703995270546,0.182091844122734,0.022864564793905154
0.00257822446360235,0.008605635395989459,0.06287824457968691,0.004769169363905087,0.04832401739037992,0.011047107563370389,0.05631604708119951,0.040976650032057825,-5.84585713577789e-05,0.035423771452367914,0.03206268816070719,0.040311419219276654,0.03731819088648971,0.18238270559865505,0.18299432252664366,0.02438307708573089
0.0025868412163132827,0.008610338763261262,0.06560595221709872,0.0047947235422554,0.05339478742558433,0.011506771714088504,0.058749298834851894,0.0426709658408778,0.00047974678918957336,0.036002828512179126,0.033180494556950615,0.04150122908150667,0.038724782976469405,0.18633710664321482,0.18390966389154453,0.02585548943271281
0.002595629900961974,0.008613255664163247,0.06831124296122004,0.004819650985106562,0.05833729706011,0.011960221040412531,0.06112859948428568,0.044342168064335906,0.0010340631348583456,0.036590489239737664,0.03429763817191898,0.0426814033675333,0.04013495560111444,0.1902298914315909,0.18483599353741836,0.027282537747682162
0.00260454307605904,0.00861479823431098,0.0709935198139943,0.004843898937591349,0.06315251778246338,0.01240756103896024,0.06345357393074516,0.045990561870746995,0.0016053888133157634,0.03718729000166337,0.03541394023237283,0.04385153292797568,0.041548306185357105,0.19405746411155747,0.18577114409281908,0.02866496733725625
0.002613529632235478,0.00861537203582556,0.07365218344305938,0.004867414130657701,0.06784138334424507,0.012848892853355777,0.0657240793544689,0.04761658322431157,0.0021946496190552644,0.03779371012193174,0.03652917798165358,0.04501115919022961,0.04296440158854285,0.1978164058401307,0.18671270471311138,0.03000350647324135
0.002622535834105185,0.008615371385729497,0.07628668556689586,0.004890141591939731,0.07240474026973734,0.013284304194574123,0.06794021068855892,0.049220801163713246,0.0028027927821923076,0.03841017984945224,0.03764308896688083,0.04615975824840919,0.04438275464662731,0.20150352066808427,0.18765810805992775,0.03129886987399921
0.0026315064014438227,0.008615176547716792,0.07889657998026305,0.004912023161194691,0.07684332225239394,0.013713864435941046,0.07010229372073848,0.05080391313897737,0.003430780421092067,0.039037087431486435,0.0387553699771621,0.04729674338568805,0.04580281241921395,0.20511586352323688,0.18860472433416675,0.03255178386939622
0.0026403854556906643,0.008615153468876476,0.08148156665064957,0.004932995696059441,0.08115774081536412,0.014137626551981496,0.0722108654468332,0.05236673360760417,0.0040795826152004765,0.039674782857695164,0.039865670547889906,0.048421482316065516,0.04722396448222403,0.20865074861289948,0.18954995018080104,0.03376301497193155
0.002649117281024511,0.00861565525822399,0.08404152441130205,0.0049529892210115655,0.08534847656599313,0.014555634172487834,0.07426664176412026,0.05391017629655682,0.004750170768790814,0.040323579007258296,0.04097358264909216,0.049533319041601964,0.04864556445147884,0.21210573707766675,0.19049128861587444,0.03493339169356803
0.0026576468581827615,0.008617023903787832,0.08657652830129914,0.004971925902324839,0.08941586933117772,0.014967930256186042,0.07627047307866963,0.055435230723723077,0.0054435131995580486,0.0409837513038272,0.0420786323119793,0.05063159457607647,0.05006695321118927,0.21547860327237642,0.1914264162110933,0.03606381714581642
0.0026659201403114053,0.008619591433172058,0.08908684854666282,0.004989720721640609,0.09336012139550941,0.015374565716948708,0.07822328889101869,0.056942933735460985,0.006160574727509617,0.041655537034417364,0.04318028045141548,0.05171566523199925,0.051487478893766654,0.21876727962133902,0.19235323403533963,0.037155271836261244
0.002673884052825341,0.008623680424101913,0.09157292948618215,0.005006283658072091,0.09718132263328666,0.015775607589623174,0.08012603290004089,0.05843433695094988,0.006902319601278562,0.042339135410430585,0.04427793409482703,0.052784918126189045,0.052906512262595434,0.2219697805910171,0.19326989929713353,0.03820880663803876
0.0026814862128118817,0.008629603931093473,0.0940353483258227,0.005021522520922499,0.10087949159039322,0.016171146384018464,0.0819795968874603,0.05991047110526257,0.0076697156490517955,0.043034709255391206,0.04537096268488193,0.05383878362586131,0.05432345637795782,0.22508410694157086,0.1941748352499506,0.03922552645955347
0.002688674377189473,0.00863766488948517,0.09647475532499285,0.005035345878872051,0.10445462261688962,0.016561302192561512,0.08378477799340123,0.06137230989258317,0.008463738385730009,0.04374238891699028,0.04645871425265447,0.05487674449557398,0.05573774970301519,0.22810813205466698,0.19506671769579667,0.04020656565112156
0.0026953956419203404,0.008648155050699985,0.09889179872069946,0.005047665887072118,0.10790673263718074,0.01694622905399825,0.08554228440303992,0.06282074185198307,0.009285374767748787,0.04446227864947463,0.047540529006970624,0.05589834151787633,0.0571488621309757,0.2310394826711509,0.19594443732423578,0.041153056626468336
0.0027015954263925443,0.008661353496393022,0.10128704735521303,0.0050584008774460345,0.11123590289022095,0.01732611704642241,0.08725278452782431,0.06425656266822123,0.010135626484753439,0.04519446532944729,0.0486157489502114,0.05690317535383541,0.05855628376875433,0.23387545582054006,0.1968070381177481,0.04206609767394571
0.002707216295013727,0.008677524969318675,0.10366094292587917,0.005067477571680832,0.11444231126494886,0.01770119160051135,0.08891697266484828,0.0656804903088851,0.011015512655183824,0.04593902898800732,0.04968372235018741,0.05789090439405677,0.059959506677344315,0.23661302250762736,0.19765363309544715,0.042946735032407576
0.0027121968575382852,0.00869691878679405,0.10601380733812231,0.00507483277889622,0.11752625143455796,0.018071709597577538,0.09053563193345472,0.06709319155437665,0.011926071771826034,0.046696054297520315,0.05074380219137752,0.05886123833905672,0.061358000125150414,0.23924892006549764,0.19848329970549172,0.04379597095937066
0.0027164713116351585,0.00871976921254175,0.10834589006053837,0.005080414451572421,0.1204881358147246,0.018437951951496778,0.09210968825838571,0.06849530860743151,0.012868362727615575,0.047465641871747184,0.05179533807914044,0.059813927253464995,0.06275118023893604,0.2417797869520492,0.19929496194173865,0.04461479077157871
0.002719969968116324,0.008746297293540426,0.11065741926197897,0.0050841819941853505,0.12332848037751315,0.018800212567075012,0.09364025288928503,0.06988748209370675,0.013843464745263873,0.04824791804829231,0.05283766145684586,0.060748745874312816,0.06413837966042557,0.24420230084525446,0.20008728922598343,0.045404193502976725
0.002722620386277363,0.008776713402622312,0.11294863519252826,0.005086105748641807,0.12604787047563593,0.01915878381113844,0.09512865135854791,0.07127036987498588,0.014852476039774703,0.049043041740485856,0.05387006439583445,0.061665473030045735,0.06551883213244165,0.2465133062435094,0.20085866770849126,0.046165218034425845
0.0027243485695282233,0.008811219869285538,0.1152197996546926,0.0050861656178408515,0.128646907996789,0.019513941525197365,0.09657643730273996,0.07264466124137217,0.015896511062738625,0.04985120698262291,0.05489177528519716,0.06256386615058956,0.06689168285285817,0.2487099261559636,0.20160726864645218,0.04689896243714531
0.002725080008097998,0.008850013452522005,0.1174711801295858,0.0050843488316639,0.13112614130071018,0.019865938205195423,0.09798539018742444,0.0740110861898758,0.01697669621228466,0.05067263995079076,0.055901942275001074,0.06344363102139719,0.06825601666911721,0.25078965265146136,0.20233117328604738,0.047606595431593006
0.0027247405289871035,0.008893287512501792,0.11970300940343118,0.0050806469059903265,0.13348598877105086,0.020215010646945475,0.09935749665592576,0.07537041962686851,0.01809416394216781,0.05150758951556672,0.05689963661648414,0.06430439153770962,0.06961088966940761,0.2527504114666799,0.203028503313691,0.04828935932233398
0.002723256922871915,0.008941233734156114,0.1219154256260828,0.005075051892069629,0.1357266890640057,0.020561397439176593,0.10069491593948214,0.07672348044571627,0.01925004526571192,0.05235631075831419,0.05788387562148307,0.06514567410171987,0.07095535766915557,0.25459059656705557,0.20369753729613058,0.04894856425266753
0.0027205573280810716,0.008994043262147748,0.12410841265060074,0.00506755245269387,0.13784831262508956,0.020905357903296562,0.10199993048624943,0.07807112552573436,0.020445460721948278,0.053219041337411295,0.05885365433353158,0.06596691897094262,0.07228849993115356,0.2563090715054662,0.20433680822404487,0.049585574102986724
0.0027165713624530143,0.009051907124358424,0.1262817779558958,0.0050581313571506255,0.13985083022689018,0.021247188518908746,0.10327488365460147,0.07941423877452447,0.021681510060085844,0.05409597285262514,0.05980797720459915,0.06676751269132616,0.07360943688370498,0.2579051356130343,0.2049451780304586,0.05020178480787433
0.0027112300042651614,0.009115015849646552,0.12843518634336978,0.005046766040722126,0.14173420466763625,0.02158723545044495,0.10452210693679337,0.08075371539587206,0.022959262416154643,0.05498722695818939,0.06074588645070962,0.06754682743260133,0.07491734084957426,0.2593784544446167,0.20552188591334328,0.05079859626525534
0.002704465232973178,0.009183558223841485,0.13056822333772192,0.005033431951560268,0.14349848077550792,0.021925902021117074,0.10574384585922848,0.08209044161570318,0.02427975115576137,0.05589285191428923,0.061666485436458945,0.06830425973527389,0.07621143908478757,0.26072895543091407,0.20606656840374066,0.05137737933631204
0.0026962094488058486,0.00925771917323635,0.1326804524908665,0.0050181069269876035,0.14514386505959914,0.02226365028406943,0.10694221039193673,0.08342527014730165,0.025643975919857585,0.056812844989242085,0.06256895563352172,0.06903926631152368,0.07749100873728056,0.26195669128587357,0.20657925032979935,0.051939444152565906
0.002686394697056227,0.009337676813889294,0.1347714505058528,0.005000775308869455,0.14667079109393696,0.02260099624089102,0.10811917687421102,0.08475899173335824,0.02705290927281926,0.05774718932647577,0.06345256596625917,0.06975139512899729,0.07875536365740703,0.26306167529623414,0.2070603070702497,0.05248602483742898
0.0026749517280496354,0.00942359880481979,0.1368408148403543,0.004981431365750269,0.14807996735748127,0.022938498723134186,0.10927663693463734,0.08609230317560361,0.028507504044945335,0.05869589206345868,0.0643166736850928,0.07044031006423866,0.08000383331192411,0.2640437074593723,0.2075103997039265,0.05301829035903702
0.0026618089272372855,0.009515638854739264,0.13888814064440036,0.004960081856726176,0.14937240502717683,0.02327674244258472,0.1104164633906695,0.08742577588129032,0.030008699784633972,0.059659018071622535,0.06516071627985351,0.07110580757475182,0.08123573435770945,0.264902251671957,0.20793038578365344,0.05353737168889924
0.0026468912326943123,0.009613935351471222,0.14091296641000572,0.004936747617320479,0.15054942409592523,0.02361631625887837,0.11154057068797647,0.08875983728060595,0.03155742791574906,0.06063671703218236,0.0659841943441281,0.07174782410322271,0.0824503357099832,0.26563643709148926,0.20832120943765794,0.054044389897263886
0.002630119398245047,0.009718613323204114,0.14291470049081914,0.004911464100292319,0.1516126371244407,0.023957791605122108,0.11265096275402955,0.09009477636020291,0.033154615240895725,0.06162924184931037,0.06678664571048522,0.07236643328459107,0.08364681945782054,0.2662451861935407,0.20868377528378165,0.054540478921195464
0.0026114100303689667,0.009829788541530599,0.14489257039029885,0.0048842808609188895,0.1525639108964576,0.024301712675505734,0.11374976614120999,0.09143076915869243,0.034801185497649205,0.06263695683959258,0.06756761157816123,0.07296183246000468,0.08482424730973748,0.26672739946026197,0.20901881660843757,0.055026801841745195
0.0025906764024382725,0.009947571951823582,0.14684564264384814,0.004855260033174938,0.15340530719164103,0.024648605552916352,0.11483924707680927,0.09276791130414747,0.03649805875857415,0.06366033469878565,0.06832659573255244,0.07353431848879058,0.08598155024463407,0.2670821362114053,0.20932679153193262,0.05550456000177781
0.002567829626031299,0.010072073691857475,0.14877291403416476,0.004824473896750424,0.15413900478116005,0.024998998691940298,0.1159218118538458,0.09410624974520972,0.03824614856217478,0.06469994189713746,0.06906302404863286,0.07408425336356682,0.0871175491316227,0.26730877060837954,0.2096078585659938,0.055974994719866895
0.002542779829358454,0.010203406516872862,0.150673432940261,0.004792001681667589,0.15476720554997705,0.02535344320089098,0.11699999084228957,0.09544581112672433,0.04004635676482138,0.06575641284877683,0.06977622390847579,0.07461202064535982,0.08823099365332913,0.26740711620206764,0.2098619447455722,0.05643938178563861
0.0025154372327858706,0.010341688481273202,0.15254641588615436,0.004757925794586076,0.15529202859494853,0.025712528185370093,0.11807640722767786,0.09678662523548086,0.041899566206783756,0.06683041389026236,0.0704654386206271,0.07511797421566344,0.08932060375749731,0.26737751381934866,0.2100888606082943,0.05689901933146836
0.0024857130932515892,0.010487044765705335,0.15439134391325615,0.004722327685305858,0.15571541178464707,0.026076890161799,0.11915373234649658,0.09812874192857973,0.04380663138229706,0.06792259873946925,0.07112986725754389,0.07560238836069008,0.09038510767610818,0.2672208792694306,0.2102884141184236,0.05735521003866993
0.002453520491151553,0.010639608580295612,0.15620803026999158,0.004685284105349333,0.15603906882894183,0.026447216020907233,0.12023463014207353,0.09947224004587207,0.04576836738805056,0.06903356201528808,0.07176871041625676,0.07606543318393882,0.09142327505959282,0.2669387092011765,0.21046050725554555,0.057809238930221725
0.0024187749352818444,0.010799521117171631,0.15799665279557273,0.0046468654470581145,0.15626453187652742,0.026824239518724275,0.12132169377487996,0.10081722701458676,0.0477855374914846,0.07016380873302018,0.07238121233165364,0.07650719285481938,0.0924339438957995,0.26653304535014305,0.21060521257940934,0.05826234820815889
0.00238139476392374,0.010966930565275916,0.15975774681330798,0.004607137099413336,0.15639324759910628,0.027208731751286238,0.12241738142506614,0.10216382818536174,0.049858839705918846,0.07131375730707358,0.07296669677107706,0.0769277136026633,0.09341604003859154,0.2660063992721192,0.2107228279620705,0.05871571111821018
0.0023413013234370636,0.011141990235600436,0.1614921571501544,0.004566162517914625,0.1564266787928511,0.027601486488647915,0.12352396960537683,0.10351216539000434,0.05198889311320788,0.07248377176792613,0.0735245950498685,0.07732705721204065,0.09436858835629544,0.2653616413682807,0.21081390856425133,0.059170409921535355
0.002298418910043896,0.011324855873750067,0.16320095083548922,0.004524006218893747,0.15636639305734698,0.028003301571982393,0.12464354507659255,0.10486232476588253,0.0541762261495301,0.07367420316316986,0.07405446483400834,0.07770534875098274,0.09529071472353605,0.2646018594784738,0.21087927598439665,0.05962742654092924
0.0022526744660327593,0.011515682258319017,0.16488529486023065,0.004480736048982148,0.15621413538365533,0.028414958337179424,0.12577803412243388,0.10621431452141124,0.05642127021985935,0.0748854260049688,0.07455599879071967,0.07806281578876033,0.09618163832007932,0.263730193484801,0.21092000529285,0.06008764869925267
0.002203997028478759,0.011714619197808964,0.16654631372357226,0.004436424666431306,0.15597188222774586,0.028837204105444315,0.1269292453499253,0.10756801778290234,0.05872435943383434,0.07611786525089119,0.07502902259078388,0.07839981740279332,0.09704065396668417,0.26274965318075544,0.21093739135416073,0.06055188330965096
0.0021523169366985287,0.0119218070462701,0.16818497372507665,0.004391150218430636,0.15564187547639052,0.029270745608194478,0.12809890606724758,0.10892315785373839,0.061085733276545255,0.07737201231894339,0.07547348223374428,0.07871686177081433,0.0978671045200848,0.26166294933765216,0.21093289642030308,0.061020867843539814
0.0020975648138230303,0.012137371866611272,0.1698020619851778,0.004344996244699162,0.1552266355847621,0.029716255714709924,0.1292886860597792,0.1102792976007721,0.06350553894806553,0.07864842926786356,0.07588942113368959,0.07901461170724554,0.09866034366553683,0.26047241253847114,0.2109080814380293,0.06149527665028481
0.0020396703477057244,0.012361420978297058,0.1713982769645569,0.004298050879784596,0.1547289540332506,0.03017438629452625,0.1305002078825215,0.11163587473736594,0.06598383236344608,0.07994774093775524,0.07627694784369103,0.07929387810021614,0.09941968978259791,0.2591800495959702,0.2108645238542766,0.061975722171424656
0.001978561080726784,0.01259404079363938,0.17297437331007826,0.00425040546238371,0.1541518660728744,0.030645779291865044,0.13173504357080912,0.11299225320373488,0.06852057779063418,0.08127061550263001,0.07663619568819469,0.07955560180330289,0.1001443733397594,0.257787689833253,0.21080372492973132,0.06246275129564617
0.0019141618198276402,0.012835298166067604,0.1745313010379453,0.00420215268776693,0.1534986054670711,0.03113107331028079,0.13299469844889328,0.11434777258733778,0.07111564618659813,0.08261773449765557,0.07696727589542669,0.07980082509867996,0.100833490537931,0.25629714283420596,0.21072700969136007,0.06295683736162558
0.0018463951931157005,0.013085244003299423,0.17607031691273312,0.004153384457754854,0.1527725435633024,0.03163090548310887,0.13428058344561608,0.1157017884626807,0.07376881236661641,0.08398975391823307,0.07727022947138197,0.08003065434203849,0.10148598901751359,0.254710334468846,0.21063543093501835,0.06345836852247674
0.0017751831182517917,0.013343917268083559,0.17759306274065756,0.004104189590957778,0.15197711552030752,0.0321459087336303,0.13559397796892136,0.11705370066853213,0.07647975120429168,0.08538725864657817,0.07754499335606065,0.08024621579439935,0.10210069889235306,0.2530294157418844,0.21052970942415355,0.0639676337995154
0.0017004485578183835,0.013611348680651664,0.17910160763770142,0.004054651711876051,0.1511157368645418,0.032676704832985244,0.13693598591229786,0.11840296712146894,0.07924803310730917,0.08681071927585511,0.07779139930210549,0.0804486069179477,0.1026763918457743,0.2512568420411591,0.21041024169699354,0.06448481075723426
0.0016221172064801454,0.013887564036688288,0.1805984536962049,0.004004847975408073,0.15019171374968293,0.03322389392838307,0.13830749294915315,0.11974910153685997,0.08207311904405286,0.08826047205197084,0.07800920547044278,0.08063884774426333,0.10321184488201932,0.24939542163521128,0.21027716636068003,0.06500996132660787
0.0015401190035338299,0.014172587056657212,0.1820865066651514,0.003954849112115658,0.14920816089549585,0.033788041426806255,0.1397091436117513,0.12109165434324118,0.08495435540749541,0.08973673423106004,0.07819814223920764,0.08081784461008161,0.10370589937090895,0.24744833348533293,0.2101304511663863,0.0655430383270288
0.0014543894101901001,0.014466441683849928,0.183569015120973,0.003904720399700159,0.14816796231176535,0.03436966460466335,0.14114134984579932,0.12243017707166044,0.08789096899455784,0.09123964067031796,0.0783579567098934,0.08098638202705193,0.1041575126920387,0.24541911555025286,0.20996997540001008,0.06608389770912716
0.0013648703982516803,0.014769153750440028,0.18504948302469934,0.003854522705397087,0.14707379825915265,0.03496922424602555,0.14260431857973,0.1237641715081221,0.09088206235122634,0.09276928087831136,0.07848845095813546,0.08114514358708999,0.10456579989549862,0.24331162573603618,0.20979560067048186,0.06663231051722504
0.0012715111070058856,0.015080751934134667,0.18653156147818817,0.00380431310930346,0.14592821560934846,0.035587125300763627,0.14409807828730867,0.1250930275375613,0.0939266096864364,0.09432572825639743,0.07858951285027004,0.08129474494764215,0.10493006304491227,0.24112997845616346,0.2096072283768198,0.06718797223586802
0.0011742681377570313,0.015401267933708343,0.18801892590168598,0.0037541450234165265,0.1447337040966553,0.03622372382514251,0.14562249555596943,0.12641596633766194,0.09702345349191284,0.09590905974966576,0.07866113853624523,0.08143576362558747,0.105249806299028,0.23887846040463043,0.2094048424787388,0.06775050889529764
0.001073105469974309,0.01573073580066052,0.18951514480116774,0.0037040678412480006,0.14349276249351353,0.036879334213012246,0.14717727966831132,0.12773202130072367,0.10017130192219242,0.09751936455866438,0.07870344601909783,0.08156876114070159,0.10552473531424482,0.23656142960548066,0.20918853656074324,0.06831947942567926
0.000967993998908158,0.016069190377127573,0.1910235604148009,0.0036541261830555036,0.14220795208273812,0.03755423328562399,0.14876197434973026,0.1290400728382183,0.10336872689105871,0.0991567410619934,0.07871667947920201,0.0816942974552704,0.105754740195908,0.23418320209037846,0.2089585245638374,0.06889437387029976
0.0008589107110397397,0.01641666480741911,0.19254722954295136,0.003604358978686046,0.1408819362156398,0.03824866027968659,0.1503759366207331,0.13033891496663813,0.1066141627305873,0.10082128165037274,0.07870120429109836,0.08181293814574501,0.1059398619640384,0.23174793068205457,0.20871513495870583,0.06947460719488678
0.0007458375301295022,0.016773187112242554,0.1940889550919579,0.0035547989872084353,0.13951750523259512,0.03896281245296817,0.15201830427059432,0.13162732390456108,0.10990590514103879,0.10251304575904403,0.07865749291068344,0.08192525516516849,0.10608024329307338,0.22925948929217527,0.20845878854471708,0.0700595085664111
0.0006287598821579362,0.017138775840557792,0.1956513751759851,0.003505473261046253,0.1381175865140369,0.03969683632431533,0.15368796204582888,0.13290411660012375,0.11324211003925991,0.10423202198891611,0.07858610203461172,0.08203182238260397,0.10617606509138464,0.2267213995764297,0.2081899604748991,0.07064830612366925
0.0005076651412248956,0.017513434843400063,0.19723705884684004,0.003456404351470198,0.13668523991786985,0.04045081687441517,0.15538352938172742,0.13416819587966736,0.11662079179660285,0.1059780829479939,0.07848764164913553,0.08213320729676066,0.10622747125609555,0.22413683744211985,0.20790912752154286,0.07124011063423466
0.00038254149681301176,0.017897147245874587,0.1988485885314849,0.0034076116690211693,0.13522363933725506,0.04122477173473092,0.15710338419359487,0.13541857960461515,0.12003982025228375,0.1077509465770088,0.07836273680068748,0.0822299604033535,0.10623449558087289,0.22150871022707272,0.20761670200234233,0.0718339084210819
0.00025337801227090983,0.018289869390754047,0.2004886270033252,0.0033591126424867964,0.1337360415728457,0.04201865647083955,0.15884571067638906,0.13665441203595496,0.12349691580303014,0.10955016647036984,0.07821198314216364,0.08232260364741839,0.10619702754190606,0.21883975896385513,0.20731295417388945,0.07242857193121384
0.00012016603196554669,0.01869152711531909,0.20215996796956234,0.0033109235577504573,0.1322257441456252,0.042832378739542355,0.16060855127446283,0.13787495648279707,0.12698964181359812,0.11137515930209929,0.07803590110142085,0.08241161922105184,0.1061148427979391,0.216132653163029,0.20699792550242213,0.07302288380214728
-1.7098741973907717e-05,0.01910201653763154,0.20386556958906576,0.0032630600200892717,0.130696034067019,0.043665814965637616,0.16238985366423997,0.13907956920357878,0.13051539357381173,0.11322525240437767,0.07783490427485559,0.08249743969148184,0.1059876772099216,0.2133900692443994,0.20667134845644,0.07361556552718339
-0.0001584141869563508,0.019521208623556236,0.2056085703954318,0.0032155370095958103,0.12915012991535527,0.04451882578314871,0.16418750925120748,0.14026765539056565,0.13407138305382824,0.11509973148019133,0.07760930082270466,0.08258044009004761,0.10581530743953199,0.21061475113444206,0.20633261310640832,0.07420530660332718
-0.0003037699593115747,0.019948955123835845,0.2073922872561209,0.003168368526297992,0.127591119823325,0.04539126860060767,0.16599938000775116,0.14143860886260215,0.1376546187864473,0.11699788009044046,0.07735932806001791,0.0826609321924913,0.10559762170061256,0.2078095521879361,0.2059808065091991,0.07479079274424402
-0.0004531460239903643,0.02038509441938114,0.20922019521800844,0.0031215668475158046,0.12602190589483592,0.04628300596454713,0.16782331098850334,0.14259173778842257,0.1412618814686517,0.1189190078526949,0.07708520174994712,0.08273916081183383,0.10533467675323702,0.20497745823179972,0.20561479896650497,0.0753707316574168
-0.0006065115685163073,0.02082945683746675,0.21109588942696464,0.003075141443445681,0.12444518027013353,0.04719390858767864,0.16965712653027185,0.14372618816828395,0.14488970166582948,0.12086246475054668,0.07678716433368293,0.08281530154455188,0.10502673852952656,0.2021215921487847,0.20523333745907713,0.07594387480994676
-0.0007638243378993492,0.021281869211908406,0.21302302979618362,0.00302909777397262,0.12286344737454663,0.04812385219293651,0.17149860894097735,0.14484089820589663,0.14853435245977045,0.12282763960908637,0.07646552652753358,0.08288945909414265,0.10467430459717733,0.19924520099764487,0.20483513083737595,0.0765090336106828
-0.0009250304078387418,0.02174215847390292,0.21500526973732967,0.002983436588612941,0.1212790728674726,0.049072707687734154,0.17334545936644793,0.14593461433756938,0.15219186419701872,0.12481394161825846,0.07612070028983096,0.08296166507340058,0.10427810757551854,0.19635162718546914,0.20441892374352083,0.07706508853116105
-0.001090064392916633,0.022210154081918187,0.21704617102998883,0.002938154331658891,0.119694332036043,0.05004032460316676,0.1751952414511832,0.1470059593956502,0.15585805518841858,0.1268207647411956,0.07575322145244898,0.08303187407918802,0.10383909956471839,0.19344426564988274,0.20398355646849628,0.07761098988232301
-0.0012588500656305658,0.02268568912793261,0.21914910772712962,0.00289324451716647,0.1181114476080182,0.051026508296496145,0.17704531297054332,0.14805351856806281,0.15952856928338785,0.1288474358757103,0.07536376073710474,0.08309995685215174,0.10335841857600739,0.19052650935985835,0.20352800828598977,0.07814574925926071
-0.0014313013421020416,0.023168599992318052,0.22131717003370638,0.0028486994389642873,0.11653261582854905,0.052030996261927996,0.17889276762278292,0.1490759212574784,0.16319891648886314,0.1308931524203359,0.07495312241818139,0.08316568947844223,0.10283733880797785,0.1876016856947808,0.2030514222499822,0.07866842105529714
-0.0016073235721912795,0.023658724459494858,0.2235530989358589,0.002804511782874193,0.11496002028346591,0.053053447643840276,0.1807344242923633,0.150071912007495,0.1668645150589772,0.13295693047881316,0.07452223052077706,0.08322873784913844,0.10227720735672284,0.18467298640819288,0.2025531099923891,0.07917807391401106
-0.0017868150565393955,0.024155898249910834,0.2258592834248147,0.0027606759996820027,0.11339583361261048,0.054093455828836554,0.18256687851238262,0.15104040727674306,0.17052073315304095,0.13503759609529156,0.07407210311321313,0.08328863908936704,0.10167937054060372,0.18174339392616914,0.20203253569911936,0.07967375250971914
-0.001969668451424812,0.024659949969726758,0.22823781359090894,0.0027171893802192108,0.11184220790722961,0.05515057662547444,0.18438659039902763,0.15198053530345512,0.17416292788155893,0.1371338292780299,0.07360381591850597,0.08334478861968699,0.10104509910678126,0.17881561516930244,0.2014892791612814,0.08015443323767492
-0.0021557712262939245,0.02517069452673051,0.2306905516242977,0.002674052791185492,0.11030125518520802,0.05622435898259341,0.18618997796697298,0.1528916568756321,0.1777864793545155,0.13924423584493484,0.07311845707849453,0.08339644465667438,0.1003755376028113,0.17589205118368526,0.20092297857020766,0.08061898843417419
-0.002345004639373603,0.02568792510841361,0.23321919240597241,0.0026312710489526034,0.1087750198497043,0.05731437239600418,0.1879735031103126,0.1537733654957994,0.18138681723336605,0.1413674192986836,0.07261707611237282,0.08344275243236061,0.09967170544066437,0.1729748216701107,0.20033325452210957,0.08106618206752539
-0.002537241788021208,0.02621140386484739,0.23582530499396318,0.0025888529274749046,0.1072654454293594,0.05842022909718688,0.18973374573734625,0.1546254661906137,0.1849594372856575,0.143502041216206,0.07210063829073261,0.0834827795523324,0.09893454645267953,0.17006582585258423,0.1997196174873682,0.08149470423831223
-0.002732345598942673,0.026740852793775607,0.2385103531736036,0.0025468108145819852,0.1057743381486864,0.05954159936380759,0.19146746191595662,0.1554479330448771,0.18849990556261526,0.14564686578796443,0.07157000735178859,0.08351555422677939,0.09816499646531818,0.16716680866550718,0.19908136810078358,0.0819032272678341
-0.002930167111180732,0.027275949090258322,0.2412756947346288,0.0025051600474102335,0.10430333399376342,0.06067821865171788,0.1931716224593246,0.15624084641100297,0.1920038480739118,0.1478007848883173,0.07102596814285762,0.0835401028664051,0.09736404501864422,0.16427941877439298,0.1984175224557146,0.0822904641309347
-0.003130544117186287,0.027816328155170565,0.24412256070673835,0.002463917971765877,0.10285388336855783,0.06182988569777761,0.19484342913501815,0.15700431162624817,0.19546692422259446,0.1499628210478905,0.07046927186477503,0.08355548515322005,0.09653278380957381,0.16140525634332312,0.19772680721438649,0.08265522158025321
-0.003333300200347726,0.028361592095110563,0.2470520172877725,0.0024231027812430237,0.10142726106477955,0.06299645125144086,0.19648030658037957,0.15773836192279772,0.1988847827823262,0.15213210687727913,0.06990068094598192,0.08356082470121788,0.09567244015643889,0.15854590983555863,0.19700773286667939,0.0829964452766588
-0.003538244185662068,0.028911319666833545,0.25006491449489476,0.0023827321995586576,0.10002459014192691,0.06417779762528107,0.19807986901267435,0.15844286160587814,0.20225299983682787,0.15430784079118154,0.06932100496990931,0.08355533354185168,0.09478439452175712,0.1557029814728853,0.1962587061655397,0.08331325453120886
-0.003745169997839424,0.029465075888961318,0.25316182653584,0.002342822074663164,0.09864686352077215,0.06537380977365087,0.1996398618878984,0.15911745397770594,0.20556699883827292,0.15648922022829373,0.0687311263212009,0.08353832889531264,0.09387018189759781,0.15287810129832657,0.19547814342153177,0.08360496468674349
-0.003953856899358576,0.030022420891929073,0.2563429894410022,0.0023033851281969333,0.09729495683891368,0.06658433907921213,0.20115807973971514,0.15976159061929435,0.20882196115367951,0.15867535487677928,0.06813201484250012,0.08350924100627836,0.09293147761883852,0.15007293008095188,0.19466457075531787,0.0838710956995323
-0.004164070061129735,0.030582917636636963,0.25960824156417917,0.0022644304249290984,0.09596963190385879,0.06780916542264116,0.2026322624728454,0.1603746229622974,0.21201275984890397,0.16086517623169014,0.06752473142595666,0.08346761121299276,0.0919700688893642,0.1472891515683817,0.19381670712177357,0.08411136609500271
-0.004375561401647428,0.03114613813709188,0.26295697214113845,0.002225963879766696,0.09467153098798065,0.06904797313968748,0.20405997885579427,0.1609559104250784,0.21513396101049764,0.16305738836248607,0.0669104210591455,0.08341307985908968,0.09098781395178816,0.14452845483222504,0.1929335265386682,0.08432567213478458
-0.004588070617810118,0.031711667837944615,0.2663880822266209,0.002187989362712375,0.09340116280309002,0.07030035580055212,0.2054385310453836,0.16150492007463013,0.21817990072529614,0.1652504967642776,0.06629029636677186,0.08334536412441923,0.08998659137226217,0.1417925076657008,0.19201429675104462,0.084514052711692
-0.004801326204985871,0.03227910782531699,0.2698999610880859,0.0021505097991565665,0.09215888442447825,0.07156584590814254,0.20676493545659824,0.16202131068045658,0.22114480307424292,0.16744289677751995,0.06566561310923996,0.08326422631956337,0.0889682423224173,0.1390829221834198,0.19105859250659016,0.08467664115127756
-0.005015045966760657,0.03284807458963594,0.2734904796264258,0.002113528054316006,0.09094489096503663,0.07284395308814387,0.20803599932998823,0.16250499735377016,0.22402290597537303,0.1696329767923954,0.06503763939891402,0.0831694336343951,0.08793451474306108,0.1364012139428413,0.19006628266495204,0.08481360571131868
-0.005228936543919501,0.03341819711309007,0.27715700074897853,0.0020770475898500597,0.08975922458573557,0.0741341997792088,0.20924845101269215,0.1629561938231083,0.22680858216273714,0.17181921148222984,0.06440762056708157,0.08306071073086785,0.0868870313120648,0.13374875605625244,0.18903749146570614,0.0849250829182106
-0.005442692117124065,0.03398911112223726,0.28089640497630325,0.002041072893928389,0.08860180079058226,0.07543615097036357,0.2103990759097831,0.16337543042314018,0.22949644992084334,0.17400023721788752,0.06377674259700067,0.08293769216929134,0.08582729920272553,0.13112673359788637,0.18797253538211897,0.08501112002938185
-0.0056559928814655476,0.034560450428196034,0.28470512805615417,0.0020056096983941643,0.08747244039443083,0.07674943657390597,0.21148483980936533,0.1637635470128215,0.23208146821595924,0.1761749049086468,0.06314610237534023,0.08279989444061629,0.08475675159310771,0.12853611432526524,0.1868718380361475,0.08507165717117388
-0.005868503703650712,0.035131835372016015,0.28857920610663096,0.001970665007433247,0.08637089885178789,0.07807376532150624,0.2125029942938927,0.1641216612288024,0.23455901113479619,0.17834230658491296,0.06251669845731135,0.08264672589145224,0.0836767958961839,0.1259776540208173,0.18573582659119042,0.08510656286545441
-0.006079873073599466,0.035702858499617435,0.29251432291294927,0.001936246970674245,0.08529688981753082,0.07940892938526421,0.2134511594992252,0.16445111365143902,0.23692491706169716,0.18050177332580578,0.06188944683939723,0.08247752842794533,0.0825888540887851,0.12345193513934866,0.18456481397061333,0.08511570008625662
-0.006289732365792312,0.03627306902145028,0.2965058535252296,0.001902364639409652,0.08425010138259369,0.08075479924384328,0.21432738023890197,0.1647533925444231,0.23917550878873903,0.18265284357383868,0.06126520940965629,0.08229162982091306,0.08149439151325803,0.12095941914339578,0.183358888981085,0.0850989940146264
-0.0064976954068832575,0.03684196167342292,0.30054889827938297,0.0018690276473310773,0.08323020388024238,0.08211130863179215,0.21513015245409223,0.16503004175968217,0.24130758173675154,0.18479520239429836,0.060644821331707954,0.08208839321144706,0.08039493334802061,0.1185004967752989,0.18211786956208825,0.08505649051818294
-0.006703358328489704,0.03740897707696181,0.3046383017842211,0.001836245856697747,0.08223684866386777,0.0834784297277504,0.21585841805029313,0.16528255612076595,0.2433183586341794,0.1869285937478496,0.06002911285131261,0.08186725995360093,0.07929206862582393,0.11607553125104327,0.18084135413029148,0.08498840287549139
-0.006906299668758438,0.03797351430372445,0.30876865224514366,0.0018040290073115094,0.08126965778188971,0.08485613905696998,0.2165115274008802,0.16551227637564772,0.24520541030989934,0.18905270926875503,0.05941892521783432,0.08162778433636667,0.07818744234471313,0.11368489300819856,0.17952883437695197,0.08489514477840218
-0.007106080674166583,0.038534949597855105,0.3129342576578794,0.0017723863993812665,0.08032820498676269,0.08624437490767513,0.2170891700871658,0.16572031680143287,0.24696654365208495,0.1911670693657782,0.058815120685314796,0.08136965907445527,0.0770827368289732,0.11132898491848683,0.17817981419655313,0.08477734825052542
-0.007302245744677945,0.03909265586994641,0.3171290968125424,0.0017413266328603438,0.07941198898360914,0.08764299061509383,0.21759127574977763,0.165907562144804,0.2485996592069587,0.19327094308890902,0.058218586792360166,0.08109273083397643,0.07597964402220239,0.10900825721620014,0.17679391348305235,0.08463586578975929
-0.007494322961182188,0.03964602094867805,0.3213467445946578,0.001710857415849044,0.07852040374025535,0.08905171916698304,0.21801788818771436,0.16607473030681788,0.25010258227249,0.19536335687669684,0.05763023531041186,0.08079700544531258,0.07487983080468681,0.10672321178525107,0.17537095321613502,0.08447175674643544
-0.007681824539390529,0.040194463715866775,0.32558028508847153,0.001680985444019392,0.07765272011353785,0.09047017029478266,0.21836901699992023,0.1662224603264083,0.25147289461793365,0.19744318732156368,0.05705099639385795,0.08048264283352913,0.0737848997029868,0.10447439587330318,0.17391101911635015,0.08428625865296624
-0.007864246877991012,0.040737447260397554,0.3298222583128245,0.0016517163426402414,0.07680809379597607,0.09189786390369421,0.21864448665790243,0.16635139379652267,0.25270784398527674,0.19950928704185766,0.05648180856360827,0.08014994205162362,0.07269635257088061,0.10226238574003503,0.17241450209296616,0.08408074489224898
-0.008041070010722871,0.04127448823761843,0.33406468812377177,0.0016230546535385957,0.07598559792661559,0.09333428211748215,0.21884384099480153,0.16646224044998645,0.25380439631305624,0.20156060438739548,0.05592360521095288,0.07979931712226787,0.07161557446081768,0.10008776117419313,0.1708821146941431,0.08385667069826049
-0.008211756717935417,0.04180516171521418,0.3382991861679288,0.0015950038420232224,0.07518426565283802,0.09477892262076754,0.21896636211488874,0.1665558266759559,0.25475939950962695,0.20359628367854934,0.055377298325368404,0.07943126467131947,0.07054384782468552,0.09795107220598312,0.1693148837485123,0.08361550999378416
-0.008375751671980158,0.042329100924110956,0.34251708987906493,0.0015675662940611973,0.07440313170458146,0.09623134668197618,0.21901119216765697,0.16663312669150643,0.25556978036916356,0.20561574120924586,0.054843760135407295,0.0790463245661922,0.06948238442761878,0.095852799673906,0.1677141203165826,0.0833586895805127
-0.008532480765744335,0.04284599151090574,0.34670960496327724,0.001540743272259333,0.07364126925644199,0.09769121930717492,0.21897749373893752,0.1666952769761812,0.25623273133784685,0.2076187134942195,0.05432380331435454,0.07864503495162069,0.06843235669033756,0.09379331356627707,0.1660813689109684,0.08308753996291046
-0.008681350636247174,0.0433555601012352,0.3508679410216482,0.0015145348006261924,0.07289782052908636,0.09915833911773725,0.21886460308301756,0.16674357532219988,0.25674587483000844,0.20960527564305098,0.053818162025856764,0.07822788320390962,0.06739492144388005,0.09177284133719152,0.16441833866457597,0.08280328831579492
-0.008821748374435001,0.043857557223489434,0.3549834330537579,0.0014889394525786459,0.07217201984641008,0.10063265581952296,0.21867216181943552,0.16677946641559138,0.2571073983779356,0.21157582920595897,0.05332748036297914,0.0777952606856178,0.06637123524336931,0.08979146413475006,0.1627268197017652,0.08250709654422464
-0.008953041401620626,0.044351734899290535,0.3590476416707705,0.0014639540238577018,0.07146320816993133,0.10211427353871728,0.21840022196068254,0.166804516217276,0.25731615497394156,0.2135310602648505,0.05285231483789179,0.07734744186219983,0.06536246101108126,0.08784914492398883,0.16100858838368928,0.0822001195576911
-0.009074577484497795,0.044837819469192526,0.36305242517734954,0.001439573147804913,0.07077083846591951,0.1036034388315989,0.21804932018791412,0.1668203775506067,0.2573717243097234,0.21547186984904662,0.05239314938912188,0.07688460173617051,0.06436976627267546,0.08594577206274565,0.15926530606762165,0.08188356041118484
-0.009185684854738283,0.04531548481777531,0.36698997726845145,0.0014157890918538637,0.07009447161361716,0.10510051281525379,0.21762051851153483,0.16682874923450253,0.25727443217702456,0.21739927986404617,0.05195041525498188,0.07640685868147926,0.06339431370335102,0.08408120153357186,0.1574984299809856,0.08155871449140797
-0.00928567239606048,0.045784340197980826,0.3708528249512848,0.0013925920013369978,0.0694337629250198,0.10660592758759908,0.2171154097904866,0.16683133085760524,0.2570253269939623,0.21931431858100497,0.05152451038269088,0.075914321434778,0.06243724509066554,0.08225529213631999,0.15570917789645064,0.08122700121494598
-0.009373829832354182,0.04624394279711251,0.3746337824710363,0.0013699705794031599,0.06878843970826114,0.10812012787386278,0.2165360879820133,0.16682977491113707,0.2566261141839867,0.22121789031639932,0.05111581688185954,0.0754071313991418,0.06149966013034049,0.08046793270622532,0.15389856939361193,0.08088998235775023
-0.00944942778903527,0.04669382719945204,0.378325858515005,0.001347912976009723,0.06815827065710134,0.10964350045732571,0.21588508439491072,0.16682563753786456,0.256079050876125,0.2231106481532287,0.05072471608151549,0.07488549870980599,0.06058259168836804,0.07871906083224559,0.15206751226256457,0.0805493668154653
-0.009511717635363392,0.04713353809970495,0.38192211580304586,0.0013264077136305391,0.06754302817657815,0.11117630707571884,0.21516527256738485,0.1668203286675805,0.2553868050320137,0.22499292040124994,0.05035160072729777,0.07434973107902132,0.059686982502109444,0.07700867296201026,0.1502168912771886,0.08020700226317257
-0.009559931185144147,0.04756266039523016,0.3854154843262617,0.0013054445781896602,0.06694244518531339,0.11271865765619589,0.2143797456324775,0.1668150618507822,0.25455228455786727,0.22686473437147214,0.04999688384249099,0.07380025465229803,0.0588136745421929,0.0753368261684168,0.14834764393178096,0.07986485480298586
-0.009593280423636625,0.04798084512671837,0.38879854780819684,0.00128501542893584,0.06635617481383961,0.11427054664949161,0.21353167112145055,0.16681080530082887,0.2535784431590365,0.2287259177566302,0.049661003786506314,0.07323762634481866,0.057963417949155854,0.07370363219714762,0.14646082132627183,0.07952497822364339
-0.009610957359902814,0.04838782994519067,0.3920633801573256,0.0012651148829065616,0.065783773957857,0.11583192980018078,0.21262412996060065,0.166808243700288,0.2524680820633456,0.2305762240786731,0.04934442509055611,0.0726625373808571,0.057136891740321306,0.07210924469705413,0.14455763299568858,0.07918947491891615
-0.009612134025171701,0.048783452980537434,0.3952015415168724,0.001245740834788891,0.0652247239346747,0.11740280670668775,0.21165997013567653,0.16680776917220957,0.2512237054475789,0.2324154515998941,0.04904763474376682,0.07207580802618864,0.05633472424483372,0.07055384074517142,0.1426394750949237,0.07886045080076194
-0.009595962592632339,0.04916765924821655,0.3982042590759885,0.001226894781001035,0.06467847454716745,0.11898329482249816,0.21064174610737446,0.16680950911269285,0.24984750440644077,0.23424354817519655,0.048771133750036416,0.07147837377835328,0.05555750822926056,0.069037597910097,0.14070794194804004,0.0785399666873037
-0.00956157551373883,0.04954049904534572,0.40106270587874887,0.0012085819271001996,0.06414449080329648,0.12057369100407425,0.2095717854550195,0.16681337699790477,0.2483414757919709,0.23606069935072818,0.04851542397570173,0.07087126355566371,0.05480580989840325,0.0675606681524065,0.13876482153260905,0.07822999272620117
-0.009508085512633614,0.04990211814072587,0.40376828850148344,0.0011908110693959616,0.06362229420650814,0.12217451719209706,0.2084523323416187,0.16681912979046723,0.24670760187072044,0.23786739737687534,0.04828099055205297,0.07025557069495338,0.054080171549632655,0.06612314984466973,0.13681207597712375,0.07793238150413712
-0.009434585382392889,0.05025273993792191,0.4063129072740637,0.0011735942540297092,0.0631114970942444,0.12378654749415362,0.2072856957665998,0.1668264264460009,0.24494802345480976,0.23966448911724028,0.048068280369055805,0.06963241782068944,0.05338110805124727,0.06472506007717496,0.1348518085896762,0.0776488724497223
-0.009340147679836588,0.050592640167082696,0.4086891735575119,0.0011569462288611807,0.06261182881140175,0.12541081478670085,0.20607437513818502,0.16683488645606692,0.2430651845938204,0.24145320112370328,0.04787768002575266,0.06900291687348763,0.05270909769429749,0.06336631373452516,0.1328862192985176,0.0773811197927116
-0.00922382443464701,0.05092211501942907,0.41089056981466426,0.0011408837144267804,0.06212315287787683,0.12704859592746584,0.20482115834892087,0.16684414684155768,0.24106194463074498,0.2432351404474616,0.04770950288481457,0.06836812663999575,0.05206456831248571,0.062046719403404456,0.13091755066307956,0.07713072556396836
-0.00908464692936508,0.051241443958351715,0.41291154046679707,0.001125424529263827,0.06164547472532315,0.12870137571203075,0.20352918872283896,0.1668539155259883,0.23894165492960268,0.24501227011099505,0.04756399410877125,0.0677290168363479,0.05144788037459376,0.06076599452595184,0.1289480268042828,0.07689926709674791
-0.008921625581806958,0.05155085382473068,0.41474750473282257,0.001110586611465781,0.06117894001478162,0.13037079075979782,0.20220199857290727,0.1668640186244537,0.23670819914934735,0.24678685862011368,0.047441350564897136,0.06708645626965325,0.05085931213591491,0.059523790102014765,0.12697978770552548,0.07668831695119167
-0.008733749960165646,0.051850501452651285,0.41639478662727325,0.0010963870824476278,0.06072382397813786,0.13205855551241702,0.20084350861094094,0.1668744389300188,0.23436599749247577,0.24856140348380804,0.04734174504690727,0.06644123286539659,0.050299055473100165,0.058319714977452926,0.1250148256548983,0.07649945535914639
-0.008519988958588864,0.052140486922311755,0.4178504618028143,0.0010828417234709535,0.06028051262566659,0.13376637341203593,0.19945799402569112,0.16688534280505787,0.23191997682458496,0.25033852945226365,0.04726534798145282,0.06579409149193076,0.049767225705076266,0.057153356667691176,0.1230549430102915,0.07633427567766035
-0.008279291157339145,0.0524208875119485,0.4191121256628697,0.001069965165223675,0.05984947700379165,0.13549584375242166,0.19805001961516902,0.16689709281802226,0.22937550987695288,0.25212086307906145,0.04721234444974175,0.06514577209525921,0.04926387829729213,0.056024298604303725,0.12110175294988682,0.07619438365542544
-0.008010585386759465,0.05269179494515535,0.42017759181336406,0.0010577716166243877,0.059431241949863975,0.1372483950440969,0.19662434784612107,0.16691024381852915,0.22673832785251852,0.2539108862366335,0.04718294565164403,0.06449704181481442,0.04878902388416105,0.05493213380282144,0.11915672093075028,0.07608139154213223
-0.007712781508265794,0.052953348202986486,0.42104454718189716,0.0010462757201519784,0.059026350958271065,0.13902528126298627,0.19518582503351714,0.16692552071119807,0.22401441161376826,0.2557107911714083,0.04717739430343013,0.06384872006636207,0.048342638275883844,0.0538764750360256,0.1172212221593904,0.07599690819856891
-0.007384771418628863,0.0532057601828819,0.421710259996617,0.0010354933047165798,0.058635328835911577,0.14082764097286246,0.19373925190434726,0.16694377694978613,0.22120986720987335,0.2575224025088325,0.04719596386868312,0.0632016958950554,0.0479246667211056,0.052856961660006696,0.11529659550335762,0.07594252639543658
-0.007025430220554355,0.053449337133983386,0.42217150419690974,0.001025441985937752,0.05825864532350959,0.1426565830021439,0.19228925482129933,0.16696593368980145,0.21833079178573048,0.2593472208877359,0.04723895193885489,0.06255693724910195,0.04753502210292124,0.05187326328258275,0.11338418814532904,0.07591980842868282
-0.006633617310453059,0.05368449013825352,0.4224247621778401,0.0010161416049845283,0.05789668834161235,0.14451326808739243,0.19084019934061972,0.16699290055790758,0.21538313590873248,0.26118656064381635,0.047306668467804715,0.06191549218404103,0.047173577185119484,0.05092508048828356,0.1114853900809933,0.07593027104210226
-0.006208177026913505,0.053911738273958267,0.4224665784376236,0.0010076145051730902,0.057549758333074304,0.14639897646607425,0.18939618902932354,0.16702548005793544,0.21237258121337954,0.2630417140415811,0.04739941988852612,0.06127848236009445,0.04684015146774428,0.05001214284440806,0.10960165790977147,0.07597537045216159
-0.005747938768684863,0.05413170347297736,0.42229391303229646,0.0009998856525456911,0.057218084614852366,0.1483151589301512,0.18796114047204035,0.16706427363479082,0.20930447841481423,0.2649141047201384,0.047517490372073264,0.06064708952177201,0.04653449608924792,0.049134204412310464,0.1077345277163268,0.0760564880369651
-0.005251716833864396,0.05434509744683073,0.421904436874947,0.0009929826123309486,0.05690185146745554,0.15026346972559204,0.18653888207314984,0.16710963891771016,0.20618387532033366,0.26680541919222117,0.0476611216100825,0.06002253593314928,0.04625628595558759,0.0482910369808744,0.1058856171826426,0.0761749170038154
-0.0047183102391400505,0.05455270139038791,0.4212967543924192,0.0009869353973251873,0.05660122285244262,0.15224578058731536,0.1851332372704557,0.16716173392929137,0.20301560347099998,0.26871770991259303,0.047830492969764764,0.059406059970271034,0.04600512673192767,0.04748242122893633,0.10405661739758064,0.07633185010989102
-0.00414650262459009,0.05475533946139943,0.4204705430258741,0.0009817762067999868,0.05631636272385983,0.15426417607689602,0.18374808072081003,0.16722062098394044,0.19980437108834115,0.2706534645797318,0.048025705933382165,0.058798888233778254,0.045780573158412864,0.046708136014015404,0.10224927513621353,0.07652836829765296
-0.003535062292683814,0.05495384726578051,0.41942660356507644,0.0009775390756330993,0.056047451128993224,0.15632093118904533,0.18238736590530052,0.16728638136499377,0.1965548389733716,0.2726156378832822,0.04824677808740271,0.058202205633874786,0.04558214951357458,0.04596794597972323,0.10046536665820296,0.07676542993670421
-0.0028827424310698332,0.055149036744085805,0.41816682006231676,0.0009742594531866086,0.05579469649429155,0.1584184728688169,0.18105512437578744,0.16735921868661624,0.1932716764407163,0.2746076437743639,0.048493647133232703,0.05761712672890147,0.045409366812065546,0.04526158767687565,0.0987066643168158,0.07704386024858156
-0.0021882815680991084,0.055341662069859625,0.4166940327978203,0.0009719737302944734,0.05555834461681085,0.16055932760321598,0.1797554385930687,0.16743954495100594,0.18995959769240348,0.2766333084003674,0.04876617867563041,0.05704467658816996,0.04526173481846805,0.04458875440600427,0.09697489747196614,0.077364341856297
-0.001450404307911899,0.05553239868280613,0.4150118321941536,0.0009707187308865929,0.055338684922480806,0.16274605760106275,0.17849239187484436,0.16752804465507953,0.18662337986956826,0.27869678597250025,0.049064171941494594,0.05648578981211992,0.045138767797364525,0.0439490806399885,0.09527170935650699,0.077727410508993
-0.0006678223884524364,0.05572184646930848,0.41312428546052143,0.0009705311825909097,0.05513605450999825,0.16498118825120509,0.17727000027617407,0.16762571322760658,0.18326786469676762,0.28080244187501013,0.04938736198296798,0.05594132580255476,0.04503998335210947,0.04334212992263063,0.09359861595869355,0.07813345940013104
0.00016076389889728939,0.055910552820525095,0.41103561088798557,0.000971447178416627,0.054950840381540224,0.16726712956358647,0.17609213218289388,0.16773386725797246,0.179897946127342,0.2829547091336948,0.04973541885630517,0.055412089312516316,0.04496489419400698,0.042767393009897466,0.0919569830549146,0.07858275026221688
0.0010366638951318317,0.05609904167699636,0.40874983538681103,0.0009735016714126451,0.05478348008500889,0.16960609682713093,0.17496242842430293,0.1678541253563434,0.1765185466973744,0.28515792580606025,0.050107944492311755,0.05489884802740059,0.04491299319413007,0.042224298631364864,0.09034803541800586,0.0790754274547209
0.0019611943387219393,0.056287839742380975,0.40627053668714164,0.0009767281348596083,0.05463446078036515,0.17200004754870885,0.17388425125215928,0.16798835999172923,0.17313458540201007,0.2874161665073608,0.05050446812571959,0.05440234497414005,0.04488373295833913,0.04171223136661899,0.08877289154100154,0.07961153345745028
0.0029356766915917595,0.0564774975951485,0.40360080426571604,0.0009811585408188135,0.054504316523410326,0.17445066174514534,0.17286068654913714,0.16813862220679285,0.1697509398375772,0.2897331052671842,0.050924441224054935,0.053923305665176814,0.044876505805975755,0.041230550409752,0.08723260527399207,0.0801910254209773
0.003961434016318767,0.056668605216995765,0.4007434352599343,0.0009868236402053368,0.05439362336571162,0.17695937318011104,0.1718945877121676,0.1683070426157693,0.1663724051351945,0.2921119675775492,0.05136723285161071,0.053462440140856694,0.04489063668966075,0.040778607022638955,0.08572820307316407,0.08081379231214579
0.005039787408073805,0.056861801711867124,0.39770123473004465,0.0009937533692659546,0.054302991730079304,0.17952742751809028,0.1709886265654369,0.16849571346148445,0.16300365188299895,0.2945555865110502,0.05183212632615311,0.053020440306281814,0.044925396218542434,0.04035576021250316,0.08426071388234906,0.08147967201856325
0.006172052316454335,0.05705777923185551,0.3944772969622201,0.0010019772450215257,0.05423305546326956,0.18215594202163402,0.1701453287567469,0.16870657091339608,0.15964918483624665,0.29706650688811304,0.0523183178839582,0.05259797315729067,0.04498002577307757,0.039961390189083554,0.08283119075088223,0.08218846763673972
0.007359535757022894,0.05725728134421341,0.3910752267233927,0.0010115247095270243,0.05418445700948814,0.18484595868568843,0.16936708809916828,0.1689413272763844,0.15631330379185018,0.2996470780679972,0.05282491787437656,0.05219567064847109,0.04505376289155031,0.039594909202573636,0.08144072361135893,0.08293996207641234
0.008603535173705278,0.05746109625777596,0.3874992930872267,0.0010224254138954069,0.054157828296753856,0.187598489962103,0.1686561599713609,0.16920149428311712,0.15300006759809232,0.3022995160042363,0.053350954771571285,0.05181411706999103,0.04514586184286985,0.03925576943498317,0.08009044298410897,0.08373393007735824
0.009905338488606804,0.05767004547075542,0.3837545121063533,0.0010347094324606526,0.05415376717691948,0.19041455628845738,0.16801463543395048,0.16948847588059388,0.1497132650231987,0.3050259336008218,0.05389538203230883,0.051453834867938905,0.04525560786754105,0.038943467711666645,0.07878151472804631,0.0845701467591576
0.011266224467654086,0.05788496850183162,0.3798466582646084,0.001048407397394069,0.05417281178350108,0.19329521463642377,0.16744439911032988,0.16980367587436246,0.14645640231642865,0.3078283406181126,0.05445708755934551,0.051115270117838035,0.04538232396628197,0.038657546911081454,0.0775151263051515,0.08544839190882347
0.012687463039039422,0.05810670442275234,0.37578220811142127,0.0010635505447860907,0.054215422315817954,0.1962415772565104,0.1669470811797454,0.17014858834638352,0.14323271380549685,0.31070861645560444,0.05503490526559268,0.0507987806191658,0.04552536959407238,0.038397594071968744,0.07629246535345362,0.086368449351116
0.014170315467231904,0.05833607092637523,0.37156822258765193,0.00108017066486949,0.054281982702889434,0.1992548197460671,0.16652402861308246,0.17052486166122138,0.1400451875516335,0.3136684609346396,0.055627627990828266,0.05050463146797326,0.045684131144587574,0.038163235319390906,0.07511469165712302,0.08733010093227415
0.015716034273118087,0.058573841645093605,0.36721217715721466,0.0010982999518107791,0.05437282356026898,0.2023361775386122,0.16617631718440332,0.1709343325166361,0.1368965931675302,0.31670932958986137,0.056234020815702356,0.05023299948539061,0.045858004651147304,0.037954127845475485,0.07398290384979364,0.0883331148665089
0.017325862780912117,0.05882072238899426,0.36272175085683567,0.0011179707523323412,0.05448825550262957,0.20548692993963094,0.16590479545502063,0.17137902818213605,0.13378950600249673,0.3198323608537448,0.056852833661674006,0.049983981483686754,0.046046371649938425,0.03776994927902577,0.07289810614912724,0.08937722842998073
0.019001034165690617,0.059077329530983796,0.3581045867015701,0.0011392152172117103,0.054628602686096234,0.2087083709501646,0.1657101343679899,0.17186113689099258,0.13072632693222902,0.3230383028201419,0.05748281197354897,0.04975760085419763,0.04624857197785054,0.037610384853609825,0.07186118945360678,0.0904621252223796
0.020742769872550852,0.05934417910915267,0.35336804820838513,0.0011620648651767995,0.05479423258443439,0.2120017663520105,0.1655928657815856,0.172382948204787,0.12770929765531763,0.3263274469779273,0.05812270426420839,0.049553810625678776,0.046463884376718806,0.03747511283201836,0.07087293975781388,0.09158740743599812
0.022552277280114497,0.05962169270377285,0.34851903865876566,0.0011865500745127096,0.054985580264781425,0.2153682968943819,0.16555340471357488,0.17294676694958291,0.12474051136805396,0.3296995754340727,0.058771265365652775,0.049372492867136804,0.046691527311039434,0.037363788664667386,0.0699340690215033,0.09275256376352772
0.02443074648787167,0.05991021488855483,0.3435639704998952,0.0012126995775062542,0.055203165646617286,0.21880898792520914,0.1655920535998228,0.17355480592695507,0.12182191869594836,0.3331539267574342,0.05942725437855221,0.04921345450406549,0.04693067974746837,0.03727602835204628,0.06904525280700245,0.093956938397875
0.02637934611893444,0.06021003320373805,0.3385088931773586,0.0012405401550190293,0.05544760256518627,0.2223246264387064,0.16570898835905873,0.17420907943156494,0.1189553288156847,0.33668918376881546,0.06008942654084901,0.04907642052814508,0.047180509548864394,0.03721139334140431,0.06820716481287734,0.09519971620170993
0.028399218047186807,0.06052139673223074,0.3333596890417211,0.001270096686713781,0.05571959889308905,0.2259156778125475,0.1659042275563388,0.17491135129837065,0.11614240580841106,0.3403034845091952,0.060756518535696934,0.04896102833912759,0.047440199050994586,0.03716938314764302,0.06742050546059017,0.09647993482938133
0.030491470980435496,0.06084453265472623,0.32812225344780793,0.0013013924577192557,0.05601994747008129,0.22958223880515638,0.1661775873537474,0.17566317353665978,0.11338466044075154,0.34399445538783674,0.06142722711534574,0.04886682876552112,0.04770896397341595,0.03714944007523072,0.0666860234822169,0.09779651549357964
0.03265717285868231,0.061179660454394026,0.32280263280239024,0.0013344494995134143,0.0563495081164265,0.23332405790882518,0.16652863188786335,0.1764659825896566,0.1106834377632143,0.3477592633086085,0.06210018284514332,0.04879329557041483,0.0479860642806159,0.03715096229671169,0.0660045297378846,0.09914829810008398
0.03489734205862493,0.061527003436007095,0.3174071178674212,0.0013692888379178013,0.056709181523908865,0.23714060835368445,0.16695664261801815,0.17732119774937835,0.10803990141491476,0.3515946815611526,0.06277392783196772,0.0487398397752072,0.04827080609091068,0.0371733187773694,0.06537690279800383,0.10053407497689826
0.037212938308103634,0.061886797220926076,0.3119422919328291,0.001405930608142579,0.057099876296982224,0.2410311762766597,0.16746062659502725,0.1782302965683448,0.10545501938785726,0.3554971625986466,0.06344691253489408,0.04870582461647744,0.048562534275293244,0.037215863268493826,0.06480408614586132,0.10195262209787882
0.03960485615015315,0.062259294886307194,0.30641503562376177,0.0014443940172815777,0.057522470824178794,0.2449949427688501,0.1680393546473744,0.17919486087112504,0.10292956197002107,0.3594629096391674,0.06411751775556862,0.0486905792474332,0.048860615963547786,0.03727794699799123,0.06428707717862384,0.10340272681976864
0.04207392331198929,0.06264476844148217,0.3008324920054188,0.0014846971432103825,0.05797777690310943,0.24903105274024745,0.1686914037525201,0.18021658962763912,0.10046411804268095,0.36348793842451566,0.06478409173417352,0.0486934102560976,0.04916441574612096,0.03735892991551068,0.06382690849711221,0.1048832111764521
0.04462090288907108,0.06304350638208508,0.29520199721813983,0.0015268565688631311,0.05846652187126459,0.2531386659702202,0.1694151872705798,0.18129727702944937,0.0980591225181612,0.3675681205112251,0.06544499002738023,0.04871361012959588,0.0494732652685442,0.037458190348263906,0.06342462226522066,0.10639294980547359
0.04724649684994099,0.06345580713605065,0.28953098306347663,0.001570886889220972,0.05898935996013528,0.2573169862656185,0.170208967928924,0.18243875638382864,0.09571488443719436,0.3716992001720703,0.06609861299193515,0.048750461893897874,0.049786436919701554,0.03757513291313052,0.06308123867794314,0.10793088162512122
0.049951349685784865,0.06388196831504808,0.2838268587401948,0.0016168002606944862,0.059546901682906106,0.26156526551172865,0.17107085205156514,0.18364281276599898,0.09343161137544125,0.37587677832473865,0.0667434388665916,0.04880323929984696,0.05010313765356415,0.037709194515494586,0.06279772124752281,0.10949601444399207
0.052736051865491185,0.06432227180730744,0.27809687929307586,0.001664606279967141,0.0601397436306016,0.26588278054182546,0.17199876515741744,0.18491107742671511,0.09120942892795501,0.38009625880330106,0.06737805056720081,0.04887120210673768,0.05042252891944664,0.037859848251124206,0.0625749485399316,0.11108742177845293
0.055601142773883054,0.06477696488766668,0.2723480098047065,0.0017143123106940807,0.06076849123403496,0.2702687821125968,0.17299041073325716,0.1862449449735185,0.08904839422028539,0.38435275463246776,0.06800115454061906,0.04895358623010333,0.05074376053518021,0.038026605019682934,0.062413708141271035,0.11270423128586811
0.05854711277872724,0.0652462376706742,0.26658681154915903,0.0017659240674096567,0.06143377302083891,0.27472241677905834,0.17404322260377353,0.18764556763766008,0.08694850264869994,0.3886409546061229,0.0686115903507706,0.04904958876482498,0.0510660039651108,0.03820901266186969,0.062314718216215315,0.1143456044000778
0.06157440404809656,0.06573019837687442,0.2608194010023,0.0018194462156316447,0.062136245624968556,0.27924262402265204,0.1751543376751807,0.18911393536513507,0.084909687370419,0.3929549805069551,0.06920833007673532,0.049158349382654176,0.05138847904191033,0.03840665245031258,0.062278664008090026,0.11601070698446876
0.06468340972610766,0.06622885283244669,0.2550515038225297,0.001874882878086982,0.06287658936333192,0.2838280180237319,0.17632061042210587,0.19065099419781967,0.08293181143371754,0.3972883244163904,0.06979046706518029,0.04927893490174426,0.05171047220622213,0.03861913279938681,0.06230623496729406,0.11769867109688033
0.06787447107444153,0.06674209939980653,0.24928855897649918,0.0019322379981144846,0.06365549476965011,0.2884767885192236,0.17753865739007801,0.1922577560822604,0.08101465283875241,0.4016339346107792,0.07035719407180772,0.04941033817603895,0.05203134479504202,0.03884608011191047,0.062398157279029115,0.11940854828421668
0.07114787220172139,0.0672697437285084,0.24353581838226393,0.001991515517132916,0.06447364103376257,0.2931866753615579,0.17880490370607685,0.19393538149498113,0.07915788351673238,0.4059844083720664,0.07090777132170527,0.0495514954864139,0.052350530467875266,0.039087126750798534,0.06255522058954444,0.12113925710528164
0.07450383203480833,0.06781152501828222,0.23779842387291752,0.002052719331921074,0.06533166779983937,0.2979550343992743,0.18011561485106967,0.19568522838829705,0.07736104853509441,0.4103322105190265,0.07144148549020819,0.04970131482954512,0.052667521488611146,0.039341896209750114,0.06277829795137528,0.12288953821260376
0.07794249323692082,0.06836714394025482,0.23208146083994605,0.0021158530088629473,0.06623014358736996,0.3027789514136799,0.1814669074190664,0.19750886331947248,0.07562356062120006,0.4146698800188828,0.07195760102982074,0.0498587060652174,0.05298184424507889,0.039609985656502485,0.06306835826502903,0.1246579417269254
0.08146390784805914,0.06893628851217731,0.22638998907244165,0.002180919245604022,0.06716953991162511,0.30765535513697817,0.18285473550816295,0.19940803335861818,0.07394471966509963,0.41899021172706363,0.07245531175372695,0.050022609090940945,0.05329302504860134,0.03989094738376181,0.06342647077771861,0.12644285797224888
0.08506801951356444,0.06951865694289996,0.22072905233011775,0.0022479190849578876,0.06815022383794359,0.31258110986318244,0.1842748513019371,0.20138460026737184,0.07232374836121369,0.4232864011955346,0.0729337144171027,0.05019201845655298,0.0536005520381688,0.04018427503927025,0.06385380149881989,0.12824257439630954
0.08875464240658444,0.07011397651378977,0.21510366903606704,0.002316850963857256,0.06917247146852074,0.31755308137463284,0.1857227500742914,0.20344044126987623,0.07075982993115294,0.4275521418861194,0.07339182230865686,0.05036600289507173,0.05390385029695745,0.04048940281576917,0.06435160169605723,0.1300553369944117
0.09252344008186823,0.07072201764953245,0.20951880712199564,0.0023877099248706094,0.07023649034040381,0.32256817112680847,0.18719363599170724,0.20557732326714073,0.06925214192028264,0.4317816661999353,0.07382860971858664,0.05054371840039991,0.05420228804428418,0.04080571909819182,0.06492118893473593,0.13187940771073992
0.09637391325451898,0.07134260244590233,0.2039793464887894,0.002460487478501261,0.07134243840967665,0.32762331515465376,0.18868244771303522,0.2077967768141667,0.06779988433950926,0.43596972438630915,0.07424306496961301,0.050724413725720764,0.054495211586164646,0.04113258764686123,0.06556392140307903,0.13371311527814422
0.10030540306877553,0.0719756070654001,0.19849003275543925,0.002535172258543935,0.07249043510973442,0.33271544590005475,0.19018394130645175,0.21010003173843947,0.06640230072760485,0.4401114984895539,0.07463423978670833,0.050907427501002966,0.05478199083779343,0.04146936958707316,0.06628116651866087,0.13555489706392923
0.10431710561742139,0.07262095758055839,0.1930554259680708,0.0026117511119251274,0.07368056351380084,0.33784141701719744,0.19169279614730245,0.2124880550047026,0.06505869111297637,0.4442024518678312,0.07500129168967681,0.051092176560729265,0.05506206165512704,0.04181544371046458,0.06707426502344425,0.1374033297211926
0.10840809000792737,0.07327861903613418,0.18767984774728758,0.0026902102318738844,0.07491286323882462,0.34299789309154416,0.19320371674518316,0.21496165202024353,0.0637684163289114,0.4482381182935805,0.07534351777161069,0.05127813551544843,0.055334959928783435,0.04217022417865232,0.06794449327227256,0.13925714679719417
0.11257731671585872,0.07394857771181884,0.18236733163180832,0.0027705361720578377,0.07618731436893976,0.3481812080131799,0.19471151760793928,0.217521567180881,0.06253089364813992,0.45221383802877285,0.07566037858193395,0.05146480807017576,0.05560034517690611,0.04253317473162239,0.06889303264694403,0.14111524190831992
0.11682365525332711,0.07463081679238598,0.177121588046967,0.0028527166745800515,0.0775038133087641,0.3533872183333663,0.1962111823388964,0.22016855510564728,0.06134558421305448,0.45612448451522003,0.07595151123340604,0.05165169106264442,0.055858011944629464,0.04290381856191866,0.06992096026849477,0.14297665663405418
0.12114590007329674,0.07532528588735521,0.17194599976025043,0.002936741250962692,0.07886214556869219,0.3586112246185586,0.19769788944972128,0.22290341667620722,0.06021197320964337,0.4599643046974732,0.07621673127834362,0.051838237366062405,0.056107888008982774,0.04328174312489704,0.07102926508231348,0.14484055288255124
0.12554278355421342,0.07603186508115284,0.16684364925347697,0.0030226014647780582,0.0802619689604925,0.36384801994777916,0.19916699931933843,0.22572699803254442,0.059129544132772,0.46372698337484847,0.0764560233309384,0.052023834960477376,0.056350019158749584,0.043666599316358835,0.07221887678822148,0.14670617010684453
0.13001298487116322,0.07675032999620371,0.16181735938313302,0.003110290877010741,0.08170281908373006,0.36909203470228374,0.20061399922754805,0.2286401537370617,0.05809774879190255,0.4674058909464821,0.07666952083151539,0.052207817338120376,0.05658454112078025,0.044058094659255885,0.0734906940755242,0.14857276837118155
0.13455513356637763,0.0774803358787997,0.15686972991835865,0.0031998046300352697,0.08318413273547409,0.3743375064722419,0.20203440628252367,0.2316436782746281,0.057115976742058205,0.47099438637485086,0.07685747573806581,0.052389499052546196,0.056811639985058116,0.0444559803943605,0.07484560746674912,0.15043955885013485
0.13916780668911935,0.07822143356446691,0.15200316534851582,0.0032911386626539173,0.0847052755700683,0.3795786373576126,0.20342363762665922,0.23473821265817607,0.05618353364128751,0.4744860956765042,0.07702021927590816,0.052568218466331695,0.05703150318753319,0.044860032655409623,0.07628451598117264,0.15230562397812078
0.14384951848707644,0.07897310729790595,0.1472198946872732,0.003384288566198945,0.08626556533747336,0.38480972687070697,0.20477689323480888,0.23792413696318435,0.0552996396506368,0.47787514018295474,0.0771581151666206,0.05274337688940981,0.05724427117003069,0.045270028213282056,0.07780833712565936,0.15416984161776862
0.14859870180075196,0.07973481711897244,0.1425219843250409,0.0034792481094264144,0.08786428758304733,0.39002527240962104,0.20608913290738679,0.24120147471862452,0.05446344747262561,0.48115630162974615,0.07727150698514439,0.0529144706872891,0.057450015024080085,0.045685715918044795,0.0794180100398409,0.1560308506528313
0.15341368053911233,0.08050603852066907,0.13791134518847026,0.0035760075331980677,0.08950070216188803,0.39522003034115194,0.207355184226531,0.244569849968069,0.05367406761082679,0.4843251139973097,0.07736066637004221,0.053081114633123073,0.057648757035937394,0.046106790018239925,0.08111449194961548,0.15788708283446964
0.15829263289653686,0.0812862975705363,0.13338973555480213,0.0036745520446859214,0.09117403950308571,0.4003890321297999,0.20856992704923014,0.2480285094372725,0.052930590321141335,0.4873778754819674,0.07742576109325022,0.053243055232898184,0.057840518691279916,0.04653287950271219,0.0828987484005668,0.15973683786989046
0.1632335453027014,0.08207519984888786,0.12895876084828656,0.0037748612964304366,0.09288348622229928,0.4055275516456195,0.20972848337273142,0.25157637058952814,0.05223210104758359,0.49031157785035634,0.07746686138447527,0.05340017329292769,0.058025370906135035,0.0469635617999734,0.08477173803420973,0.16157836545767185
0.1682341621097437,0.08287245170042225,0.12461987163079911,0.0038769101995451967,0.09462816038069537,0.41063102173972793,0.2108263810720593,0.2552120512847594,0.05157768898751716,0.49312375453133234,0.07748397931845377,0.053552475588607,0.05820347581535159,0.047398391521691244,0.08673439291883012,0.16340994002809395
0.17329194933382072,0.08367787251766055,0.12037436080962335,0.003980670514856402,0.09640707737766742,0.4156949003432835,0.21185967926585594,0.25893386547733416,0.05096644883075224,0.4958122529173201,0.07747711992080146,0.053700076093763933,0.058375117792956614,0.047836930545510165,0.0887875956386145,0.16522992540172557
0.17840409423385084,0.08449139707210196,0.1162233608460773,0.0040861125169103325,0.09821911357536167,0.42071448866086497,0.21282504513531225,0.2627397841273841,0.05039747610344006,0.49837494027038437,0.07744632969258122,0.0538431678005099,0.05854072224851366,0.04827877381577462,0.09093215446785162,0.16703682689338292
0.1835675417167779,0.0853130672736327,0.1121678414846099,0.00419320644969289,0.1000629868217228,0.42568471397973984,0.21371977490610763,0.26662737458590813,0.0498698569041938,0.5008093693308977,0.07739173843733113,0.05398198666198378,0.05870086150788506,0.04872356938242057,0.09316877800284319,0.1688293287790832
0.18877904941079773,0.086143013157314,0.10820860825811209,0.004301923692217073,0.1019372687761291,0.4305999367667172,0.21454175521238494,0.27059376128426216,0.04938265313057713,0.5031124971403478,0.07731359304188865,0.05411676959176553,0.0588562478728066,0.049171031443474414,0.09549805058865338,0.1706063154995582
0.1940352464238617,0.08698142335123364,0.10434630178407768,0.0044122375635290995,0.10384042030613458,0.43545389597897033,0.21528936494598946,0.27463565141925544,0.0489348845443515,0.5052806133980771,0.07721228209406845,0.05424771248828099,0.059007714706821625,0.049620945485567516,0.09792040976155944,0.1723668754840749
0.19933269016390995,0.087828505747682,0.10058139766654688,0.004524123711804452,0.10577083142190208,0.44023984759601076,0.2159613216678857,0.2787494207983318,0.0485255095535656,0.5073095353859041,0.07708835048306442,0.0543749436183161,0.05915618706499915,0.05007316501410198,0.10043612673653311,0.1741102870310418
0.20466791832434306,0.08868443955802222,0.09691420667409163,0.004637560050263654,0.10772685623071727,0.4449508200670568,0.2165564804234885,0.28293122029146023,0.04815340907429731,0.5091949467462795,0.07694250342146641,0.054498526697623575,0.05930264392864181,0.05052759980928506,0.10304529071242692,0.17583598626439384
0.21003749301287433,0.08954932351556232,0.09334487478248972,0.004752526222657502,0.10970683985986528,0.44957988538501004,0.217073620365712,0.28717707292936095,0.04781738027378111,0.5109327363776993,0.07677559964986382,0.054618488953684985,0.059448074491543774,0.05098419611113123,0.10574779746016195,0.17754351778227076
0.21543803399403996,0.09042313635167352,0.08987338265431273,0.004869002601971784,0.11170913526291579,0.45412040377486923,0.217511314766614,0.2914829476868423,0.047516141926192995,0.5125192820380513,0.07658863393383963,0.054734856536443686,0.059593432633742865,0.05144290959797859,0.10854334231910424,0.17923246920967395
0.22086623813980527,0.09130573187129523,0.08649954417288878,0.00498696884665782,0.11373210835538768,0.45856622813178044,0.2178679724219671,0.2958448009482173,0.047248344174232154,0.5139516638404258,0.07638270933376137,0.05484768548694022,0.05973960050007981,0.05190367245031455,0.11143141737436121,0.18090239143993156
0.2263188824489941,0.09219687269386767,0.08322300501874999,0.005106402057994998,0.11577413054047017,0.46291185557471837,0.21814202195725738,0.3002585788697609,0.047012574832161716,0.5152277961837142,0.07615900011136803,0.0549570850311693,0.05988737728193613,0.052366360544707724,0.11441131224434702,0.1825527068794505
0.2317928084092179,0.09309628316583997,0.08004324533741694,0.005227274599133576,0.1178335583468432,0.46715251550773457,0.21833213665681525,0.3047201766166532,0.04680735950082897,0.5163464706532486,0.07591870652080003,0.0550632325487563,0.060037496794244284,0.05283077622877674,0.11748211759491682,0.1841826177787694
0.23728488603254858,0.09400370233612391,0.07695959027888169,0.0053495518642321565,0.11990870057103266,0.4712841863359864,0.21843743246704028,0.3092253535412382,0.04663115557850755,0.5173073068521341,0.07566300309845805,0.05516638002548716,0.060190658238601986,0.053296658100999726,0.12064273023351342,0.18579104982920566
0.24279195658892294,0.0949189301096951,0.0739712270857282,0.00547319082351436,0.12199777396062944,0.47530353634339745,0.21845761775566613,0.3137696065466776,0.04648234389935772,0.5181106127506973,0.07539298840427962,0.0552668522256611,0.06034755414600297,0.05376370957958331,0.12389185844118344,0.18737666482482987
0.24831075387186277,0.09584186459821069,0.07107722468582714,0.005598140147928439,0.12409885195055342,0.47920778802520536,0.2183930866561461,0.3183480295069893,0.04635922749413043,0.5187571607225993,0.07510965767408438,0.05536503719077936,0.06050889048108383,0.0542316302167527,0.12722802608520056,0.18893793287195876
0.25383780473415196,0.09677252905630318,0.06827655342853159,0.005724341715290673,0.12620982269138703,0.48299450916342795,0.218244951440551,0.322955238680892,0.0462600444972033,0.519247889723163,0.07481391582844234,0.05546136996868823,0.060675398802453255,0.05470014173644829,0.13064957402898034,0.19047322604052805
0.2593693205245387,0.09771108723322057,0.06556810410004091,0.0058517326197111376,0.12832838093498786,0.4866613378935793,0.21801501318997604,0.32758543135453644,0.046182991656949494,0.5195835478237613,0.0745066209193836,0.055556310693563954,0.060847840908644986,0.05516900665272423,0.1341546574224898,0.19198090840306614
0.26490112037408714,0.09865784645757096,0.06295070553254488,0.00598024709491223,0.13045206102066806,0.49020565671734284,0.21770567380350947,0.33223254835920324,0.046126250991717584,0.5197643420863232,0.07418863476003813,0.05565031827163854,0.061027006856235744,0.0556380383444214,0.13774123761359072,0.1934594150731934
0.2704286356568336,0.09961324828237378,0.06042314010511101,0.006109818173157332,0.13257829203253438,0.4936242881649072,0.21731979585589212,0.336890465093297,0.0460880157131474,0.5197897668118217,0.07386086780153447,0.05574382098670619,0.061213707585424555,0.0561071019512858,0.14140706766163225,0.1949073174670566
0.2759469981001916,0.10057784702285684,0.05798415646998839,0.006240379011407083,0.13470445449181098,0.4969133747508083,0.21686051976293783,0.341553169310652,0.04606651359160015,0.5196587326566944,0.07352431467969672,0.055837186902017666,0.06140876360856224,0.05657610598693314,0.145149670747262,0.19632337251038726
0.28145116873618825,0.10155227699655486,0.055632478924506394,0.006371863827532528,0.13682793054111714,0.5000685378390067,0.21633104997056748,0.3462149116711513,0.04606002605185761,0.5193699011868369,0.07318007878862995,0.05593070214841712,0.06161299129979608,0.057044985101685125,0.14896631545403172,0.19770655409695784
0.2869360713828877,0.10253720970339593,0.05336681298109734,0.006504208401420732,0.13894614492066887,0.5030852082009828,0.2157344489383796,0.35087031997763024,0.046066901509193056,0.5189220508160051,0.07282938474115204,0.056024567459181475,0.06182718827170498,0.05751367493969734,0.15285400187445816,0.19905606574300005
0.29239671708535586,0.10353330254582468,0.051185846858252546,0.006637350108114281,0.14105659434690548,0.5059589721690453,0.2150735302914361,0.35551447019349797,0.046085561767096175,0.518314393172424,0.07247357816138508,0.05611891368054011,0.06205211915105992,0.05798208048842234,0.15680947108311372,0.2003713340457194
0.29782831325822273,0.10454114097343697,0.049088248813156724,0.006771227462391794,0.14315686331071467,0.5086858708534518,0.21435091406739487,0.360142909846916,0.04611450067374224,0.5175468206251476,0.07211411289315581,0.05621382569456542,0.06228850279389903,0.0584500432523271,0.160829234301747,0.20165198321034267
0.3032263514719613,0.10556118256236013,0.04707266045042538,0.006905779166250039,0.14524462480241365,0.5112626378472056,0.2135691891098702,0.3647516320867027,0.04615227464788063,0.5166200740169439,0.07175252636418811,0.056309365205859815,0.06253700164049127,0.05891732117459375,0.164909610691801,0.20289779152861612
0.3085866683278659,0.10659372577492296,0.04513768635788653,0.0070409426625696984,0.14731762502923107,0.5136868638851252,0.21273108488044623,0.36933700127167873,0.046197485109908794,0.5155358237723029,0.07139040448184555,0.05640558932153815,0.06279821353785742,0.05938359372517334,0.16904676814042047,0.2041086312458596
0.31390547467093577,0.10763892175503176,0.04328188062640231,0.007176652209937349,0.14937365180151385,0.5159570805366045,0.2118396069119164,0.37389563337649845,0.04624875326686026,0.5142966619487552,0.07102933801153576,0.05650256432132219,0.06307266598611201,0.05984848745071883,0.17323676495912224,0.20528439372290688
0.3191793494767551,0.10869681865775593,0.041503733236362805,0.007312836505356848,0.15141048690763276,0.518072758984113,0.21089812700628408,0.3784242365425245,0.046304688081264665,0.5129060072340405,0.07067087408982033,0.05660037413135548,0.06336081242728674,0.060311606939855676,0.17747559040960312,0.20642490217000575
0.32440519608143903,0.10976741441129366,0.039801664343219655,0.007449415893658478,0.15342584345442617,0.5200342240483571,0.20991042589938674,0.3829194186929605,0.04636385386111906,0.5113679291193557,0.07031647470973432,0.05669912314225775,0.06366302991872652,0.060772561612239505,0.18175920186295186,0.20752981449650668
0.3295801599489742,0.1108507050234754,0.03817403296736154,0.00758629961834825,0.15541729116114567,0.5218424876429705,0.20888068909868152,0.3873774714918862,0.04642475521184452,0.5096869012742765,0.06996750306459647,0.05679893315595569,0.06397961733753858,0.061230985380528034,0.1860835563830049,0.20859852744879115
0.33470150881884053,0.11194672530129293,0.03661915647457887,0.007723384431675068,0.1573821868947498,0.5234990095680949,0.20781345937606738,0.39179417123602117,0.04648585285332509,0.5078674973153018,0.06962524594826965,0.05689993441272683,0.06431079315942105,0.061686548045578146,0.19044463460251676,0.20963011530337486
0.3397664777678183,0.11305558068118585,0.03513533240139702,0.00786055558182487,0.15931764904839213,0.5250053968023554,0.20671355178828843,0.3961646913645517,0.04654560171970459,0.5059140445415795,0.06929095485116082,0.057002250842693794,0.06465669184771544,0.062138957739739195,0.1948384549286726,0.21062333764230495
0.3447720833650719,0.1141774691814681,0.03372085796540133,0.00799768954808077,0.1612205985407984,0.5263630550813072,0.20558593896262647,0.4004836835347722,0.04660249441199483,0.5038302977022677,0.06896588494306845,0.05710597990391393,0.06501735797233679,0.06258795421704001,0.19926107636472742,0.21157671003318043
0.3497149364664171,0.11531269281770282,0.032374045927863554,0.0081346572786581,0.16308784279242697,0.5275728477630273,0.20443561562833487,0.40474546406519957,0.0466551020424083,0.5016192847105617,0.06865132427535689,0.05721116760703013,0.0653927373423351,0.06303329327614715,0.2037085885569333,0.2124886003494701
0.35459113782664725,0.11646165815675132,0.031093236152358525,0.008271327359709299,0.16491616761101766,0.5286349050233655,0.2032674533455935,0.40894421372287987,0.046702110293096066,0.4992834243206009,0.0683486118869424,0.05731778328589052,0.06578266618523788,0.06347472306677313,0.20817708805807142,0.21335732433144167
0.3593963282132892,0.11762486601671789,0.029876802415607216,0.008407568962122951,0.16670242267033028,0.5295486997090079,0.20208607421915784,0.413074156763908,0.04674234904300477,0.49682481842830645,0.0680591441975782,0.05742570688455769,0.06618686399853506,0.06391195344929046,0.21266264022652576,0.21418123285430715
0.3641258605025633,0.11880289064049565,0.028723154266195417,0.008543254432544495,0.16844359660121494,0.5303133254437886,0.2008957978676056,0.41712971449413905,0.04677481413870111,0.4942455617999138,0.0677843697988428,0.057534738938979084,0.06660493736037128,0.0643446231269069,0.21716122663780354,0.2149587887567397
0.36877500895557125,0.11999634897377609,0.027630733978864678,0.00867826139282807,0.17013687792312196,0.5309278235688774,0.19970068543143826,0.4211056296640472,0.04679868017703193,0.49154800363022405,0.06752577345690175,0.05764462743625075,0.06703639580366759,0.06477227787895125,0.2216686783595679,0.21568863124460003
0.3733391683138945,0.12120586095895562,0.026598008901825357,0.008812474215456069,0.17177969842088087,0.5313914737983029,0.19850463371429233,0.424997059001731,0.04681330352220318,0.48873494988039495,0.06728485077235766,0.05775509873792351,0.06748067468039032,0.06519437378776072,0.22618059591860007,0.21636962605459242
0.3778140291884078,0.12243200200971092,0.025623459727475435,0.00894578475225675,0.17336975611080882,0.5317040267011057,0.19731146188941517,0.42879963209716015,0.04681821518555644,0.4858098011919926,0.06706307545827635,0.057865885818679096,0.06793716046610514,0.06561030353340427,0.23069226554118438,0.21700089974980813
0.3821957224905648,0.12367524905276009,0.024705565419845994,0.009078092210592527,0.17490501562897887,0.5318658695427593,0.1961249716132104,0.432509475671993,0.04681310363703204,0.4827766244070921,0.06686186236477751,0.05797675167983554,0.06840521652693946,0.06601943127289545,0.23519860352149255,0.21758185673680033
0.3864809268291323,0.12493592550295846,0.02384278690903148,0.009209302095255162,0.1763836846921153,0.5318781200336336,0.1949489803392733,0.4361232030084073,0.046797788073463326,0.47964015879422073,0.06668253528946781,0.05808750646978076,0.06888420808902362,0.06642112525645164,0.23969416357355464,0.21811217785719356
0.39066693418304965,0.12621416211453873,0.023033555590099394,0.00933932416534516,0.17780416620033562,0.5317426456627331,0.19378732933762174,0.439637868980849,0.046772183117757354,0.4764057608318683,0.0665263154622075,0.05819801708646132,0.06937352507717802,0.0668147845262482,0.24417320468220083,0.21859179973086512
0.3947516706834163,0.12750989433507956,0.02227627404364186,0.009468069392699768,0.17916498653711183,0.5314620094043531,0.19264386933931435,0.44305089175320467,0.046736256340118194,0.4730792937147927,0.06639433712290066,0.05830820837206515,0.06987260148898371,0.06719985833861225,0.24862978709896733,0.21902087442487495
0.3987336709165472,0.12882289666029412,0.021569329339207056,0.009595445950691428,0.18046470163698808,0.5310393455471552,0.19152242777234263,0.44635994278724933,0.04668998097053897,0.4696669695448875,0.06628767706898367,0.05841805542266896,0.07038093004353065,0.06757585731501241,0.25305787250930867,0.2193997095001377
0.40261200572617134,0.13015283378978257,0.02091111156951485,0.009721354307704095,0.18170178339430407,0.5304781720976065,0.19042676219189772,0.44956280736981397,0.04663329364694215,0.4661751534128088,0.06620738234993767,0.058527567004316654,0.07089807098890968,0.06794235573449463,0.2574514205189231,0.2197286890469731
0.40638616499108077,0.13149931138571075,0.020300031080633683,0.009845682344223854,0.18287450659540364,0.529782148559675,0.18936050473364535,0.4526572184138786,0.046566078098409666,0.4626101392732707,0.06615449048160313,0.05863676056421368,0.0714236541633696,0.06829898480825719,0.2618044780209397,0.22000817695312627
0.41005589824710387,0.1328619208088668,0.019734532177609503,0.009968303097820659,0.18398089282228966,0.5289547898182061,0.18832710226223578,0.45564066682418913,0.04648818575214523,0.45897790770440733,0.06613004153041495,0.05874562981972077,0.07195737367319784,0.0686454172026861,0.26611125796987267,0.22023840433580305
0.4136210172887855,0.134240276288293,0.0192131027656783,0.010089077059245735,0.18501875542376744,0.5279991580140533,0.1873297564059784,0.458510192236802,0.046399477859435385,0.45528389316533496,0.06613508195299504,0.05885411017018869,0.0724989748641731,0.06898134347763578,0.27036620415008666,0.22041935495936452
0.41708116602071255,0.13563404319840414,0.018734279604367302,0.010207857668227035,0.18598581891842153,0.5269176076742875,0.18637136985854613,0.4612621858628776,0.04629986828677797,0.45153283483111883,0.06617066057200546,0.05896205703365339,0.07304823360869311,0.06930644146123578,0.2745640386953978,0.22055069245890113
0.42043558091470973,0.13704295638271258,0.018296649080084482,0.010324497539429935,0.18687985725785258,0.5257117133971444,0.18545451194386567,0.46389229480620414,0.04618935905550539,0.44772878656863124,0.06623781749407216,0.05906925208671701,0.07360492829083073,0.06962033987361563,0.27869978939972245,0.2206317761205367
0.42368291941371755,0.13846682776881397,0.01789884362830809,0.010438854323468558,0.18769882338673707,0.5243824278416379,0.18458141483262633,0.46639549417197196,0.04606806718901481,0.4438752686157697,0.0663375671081222,0.059175434214775766,0.07416880522836454,0.06992258222966381,0.2827687942606291,0.22066175891675002
0.42682125446124325,0.13990554285581103,0.017539534145758585,0.01055079589519391,0.18844096231963928,0.5229303641806531,0.18375399444656604,0.46876627878725174,0.04593624188562211,0.4399754704022336,0.06647087653062156,0.05928033902160151,0.07473954005582639,0.07021260711279542,0.2867666812189683,0.22063971944419042
0.4298482433537823,0.14135904601158425,0.017217418913943437,0.010660204595219993,0.1891049023086797,0.5213560798459623,0.1829738780666674,0.4709988855323147,0.045794271552017894,0.43603243963270766,0.06663864098561927,0.05938373552413506,0.0753167052410892,0.07048975800050036,0.2906893216949307,0.2205647919809754
0.43276138058698793,0.14282731488053657,0.01693120969855344,0.010766980276548441,0.18968971937756296,0.5196603170102417,0.18224242725778017,0.47308750689096446,0.04564268077852307,0.43204924021345575,0.06684165957583131,0.05948545623455542,0.07589976146238323,0.07075331576066798,0.2945327572650833,0.220436282811219
0.43555825426934236,0.14431032455898496,0.01667961626358743,0.01087104194807967,0.19019497145584793,0.517844191104564,0.1815607546532186,0.47502648760467725,0.0454821178808397,0.42802907636997967,0.06708061962661141,0.05958541910504274,0.07648807982954987,0.07100253733599624,0.29829309966152734,0.2202537680160591
0.43823677831312297,0.14580800253125673,0.016461333326431897,0.010972327859636375,0.1906206995379421,0.5159093207541535,0.18092973617008942,0.47681049872765924,0.04531333414069113,0.42397538135181845,0.06735609707029727,0.05968364029387729,0.0770809815446316,0.07123669172913302,0.3019664051831007,0.22001716851021805
0.4407953914393603,0.1473201756612111,0.016275036931006175,0.011070793936961294,0.1909673946744572,0.5138578948322611,0.1803500202826109,0.4784346836386135,0.0451371563175144,0.41989187009576284,0.06766857010553409,0.05978023725688756,0.07767777898210554,0.07145509105972427,0.30554852556388457,0.21972679894685207
0.4432332146901761,0.1488465107889823,0.016119392972655584,0.011166410547383555,0.19123593112423787,0.5116926748065268,0.17982203584260323,0.47989477097062894,0.044954454345993454,0.41578255612482123,0.06801843645725071,0.059875422236054396,0.07827781212019849,0.07165711572315035,0.3090349546527844,0.21938338819049066
0.4455501601902806,0.15038645758007763,0.01599307233585322,0.01125915765424582,0.19142746758414833,0.5094169330998272,0.17934599963522327,0.4811871499811736,0.04476610635563281,0.4116517338049603,0.0684060278264199,0.05996948676588392,0.0788804788149225,0.07184223291891334,0.31242073258509284,0.2189880703168329
0.4477469853503549,0.15193921734719298,0.01589476608501569,0.011349018496991253,0.1915433199893052,0.5070343307161673,0.1789219244348342,0.48230890460744474,0.04457296369654001,0.4075039278719529,0.06883161988885049,0.06006277830846088,0.07948525769527753,0.07201000805173324,0.3157004711088426,0.21854234646828963
0.4498252885389754,0.1535037566280645,0.015823198384065852,0.011435972009959943,0.1915848108494891,0.5045487397935929,0.1785496278272008,0.48325780334298984,0.044375822285430036,0.4033438128793873,0.06929543763418561,0.06015567052566734,0.08009172281262197,0.07216010873107302,0.3188684896870797,0.21804801929025394
0.45178744441336793,0.15507885418518605,0.01577713678690928,0.011519985301323768,0.19155311825107246,0.50196401893934,0.17822874153855384,0.4840322431279678,0.04417541060448721,0.399176105902551,0.069797656039816,0.060248528975892585,0.08069954957924426,0.07229230129970768,0.32191899808970315,0.21750710300269047
0.45363647950576774,0.15666315693298402,0.015755399663177183,0.011601009778884425,0.19144918781061027,0.4992837510785007,0.17795872050700517,0.4846311466588805,0.04397239713221501,0.39500543645158015,0.07033839625454454,0.060341674166900464,0.08130851195589335,0.07240644000774109,0.3248462802969337,0.21692171333215796
0.45537589119520616,0.15825523239992337,0.015756860636013923,0.011678983699685662,0.19127376364120544,0.4965109766352634,0.17773885049154364,0.4850538138767091,0.04376740608639653,0.39083619808625386,0.07091771762204382,0.06043534803114151,0.08191847126745459,0.07250244911706935,0.32764486484891997,0.21629394245540778
0.4570094157163944,0.15985361489974353,0.01578045000635515,0.011753839393625768,0.19102751548245467,0.49364801556537985,0.17756825267741308,0.4852997298558211,0.0435610295384496,0.38667238666667053,0.07153560600512385,0.060529697668303475,0.08252935741146139,0.07258029837690265,0.3303096746632488,0.21562572471742797
0.45854075321918153,0.1614568441034627,0.01582515321877167,0.011825511516917771,0.19071119338992557,0.4906964806215912,0.17744588353592686,0.485368332847247,0.043353832357965964,0.3825174481096272,0.07219195898074247,0.06062478450097799,0.08314114354910108,0.07263997245876723,0.3328361496288815,0.21491871527637804
0.45997327035782193,0.1630634949597769,0.015890006487887475,0.01189394448487462,0.19032576778864255,0.48765747105323226,0.17737052815478163,0.48525874777531297,0.04314635045273082,0.37837419786936033,0.07288656856534474,0.06072060857643394,0.0837538156102305,0.07268143508375514,0.3352203358644966,0.2141742345127525
0.46130975499929056,0.16467219818214424,0.015974089754158045,0.011959098568571584,0.18987254264107106,0.48453183667833233,0.17734078538484133,0.48496952515003083,0.0429390832817431,0.3742448629701924,0.07361910422834513,0.06081713323652654,0.08436733808609906,0.07270458915776334,0.3374589364050382,0.21339330938836837
0.46255234940045076,0.1662816507937512,0.01607651717751959,0.012020954342826493,0.18935323704960524,0.48132042660683366,0.17735504345333664,0.4844985012064345,0.04273248204574892,0.37013121723019354,0.07438910331038501,0.06091430475212389,0.08498161761775794,0.07270924076799398,0.33954931924146836,0.21257677247327514
0.4637027070602242,0.16789061648563658,0.0161964254119025,0.01207951524634947,0.18877003230482392,0.47802429571733146,0.17741144516166105,0.4838428780670088,0.042526936191876696,0.36603474096271776,0.0751959742689987,0.06101206672403101,0.08559646581629629,0.07269508558282863,0.34148948005923846,0.21172536283524035
0.46476227065300685,0.16949791578979706,0.016332959937458136,0.012134808102809997,0.18812558322929832,0.4746448618791584,0.177507848525038,0.482999477499659,0.04232276349190149,0.36195676748794586,0.07603900910325923,0.06111036956868025,0.08621156594991522,0.07266172874134173,0.34327795866034105,0.21083980876657932
0.46573255294244165,0.1711024062922652,0.016485260632520538,0.012186881549631781,0.18742299453271255,0.47118400917549214,0.1776418046651053,0.4819650484711853,0.04212020869070694,0.3578986072973308,0.0769173974343877,0.061209175692592294,0.08682645488083703,0.0726087260978102,0.3449137098563343,0.2099208911393498
0.4666153778609729,0.17270295330760393,0.016652450898857266,0.012235802424486643,0.18666576466820547,0.46764413477724703,0.1778105759335228,0.4807365614205276,0.041919449430287914,0.35386164639511625,0.07783023830413323,0.0613084611570752,0.08744052812532553,0.07253562908810493,0.3463959315149914,0.2089694875791091
0.46741307317309,0.17429839160519314,0.016833636527098055,0.012281650262174551,0.1858577012539628,0.46402813951835126,0.17801119178128244,0.4793114703002257,0.04172060289225475,0.34984741615154397,0.07877654851504391,0.061408214734460946,0.08805306078367435,0.07244202637377478,0.3477238543493904,0.20798659872204578
0.4681286084938322,0.17588747892107784,0.017027915610061103,0.012324510151152648,0.18500281340915034,0.46033936451359214,0.17824052189553943,0.4776879321707777,0.04152372809044081,0.345857632908884,0.07975526675956081,0.0615084352591748,0.08866323174084292,0.07232758083726563,0.34889650587509036,0.2069733586655694
0.4687656750148091,0.17746884211107566,0.01723439427815087,0.01236446428390265,0.18410518728359462,0.45658147823647677,0.1784953520099924,0.4758649752771817,0.0413288223189183,0.34189420655943265,0.08076525289294524,0.06160912808933704,0.08927014571150016,0.07219206059947017,0.3499125045672433,0.20593103228165827
0.46932870594288034,0.1790409169061728,0.01745220304821412,0.01240158348273056,0.1831688515965408,0.4527583202510516,0.1787724563943765,0.4738426081416262,0.04113581432111273,0.3379592183364401,0.08180528185620793,0.061710301332950974,0.08987285277508561,0.07203536289249782,0.3507699946317999,0.20486100230768475
0.46982283923013957,0.1806018865062465,0.01768051190842885,0.012435922090737241,0.18219765168303065,0.44887370920611797,0.17906866280727024,0.47162186423584557,0.04094456262670454,0.33405486909303683,0.0828740319522606,0.06181196227820024,0.09047036575003241,0.07185752984272321,0.35146677484704475,0.2037647490642228
0.47025382652984127,0.18214963751613666,0.017918543549637265,0.012467519247314655,0.181195176008247,0.4449312237155402,0.17938090565472134,0.4692047791893841,0.04075486631781406,0.3301834003548277,0.08397006742090331,0.06191411422444437,0.09106167575626539,0.07165875549395687,0.3520005423798279,0.20264382530621178
0.47062789433511903,0.18368175731108444,0.018165584164102473,0.012496405336875061,0.18016476973893367,0.44093397548306823,0.17970626332603942,0.46659430015715164,0.04056648572457789,0.32634699138086826,0.08509181844485554,0.06201675366445902,0.09164576623374977,0.07143938371602297,0.3523691481131429,0.20149982815088674
0.47095156485785433,0.18519557540427192,0.018420991271891528,0.012522609850504846,0.1791096125660029,0.43688443528108384,0.18004197618440296,0.46379412979736206,0.04037916622812755,0.32254763631745864,0.08623756908436801,0.0621198675431825,0.09222162553807943,0.07119989698444387,0.35257082328893313,0.20033436932022733
0.4712314453284531,0.18668822735871596,0.018684198105441658,0.012546168288755764,0.17803280873451646,0.43278440142446944,0.18038544246150626,0.4608085101645335,0.04019266141890018,0.31878700624342377,0.08740546373221003,0.06222343013435233,0.09278825804456173,0.07094089636440855,0.3526043675734989,0.1991490441757012
0.4714739950217878,0.1881567221750894,0.01895471418437062,0.012567127416108251,0.1769374601089347,0.428635130971216,0.18073419031079693,0.4576419545519518,0.04000675381214575,0.31506631891575776,0.08859353046327441,0.06232739894989991,0.09334469348682928,0.07066307336879235,0.3524692900871671,0.1979453992995723
0.4716852794504597,0.189598007019375,0.019232121842771323,0.012585548630666691,0.17582671636026365,0.4244375519777202,0.18108582546325921,0.4542989377672354,0.0398212714800449,0.31138627592827267,0.0897997115126204,0.06243170903787152,0.09388999406247737,0.0703671746692238,0.35216589683212735,0.1967248977742776
0.4718707429241315,0.1910090276953104,0.01951606862536767,0.01260150931223767,0.1747038022532076,0.4201924735729186,0.1814379552377423,0.4507835800726104,0.039636099241747484,0.3077471112554303,0.09102189411989949,0.06253626503647611,0.09442325868205002,0.07005396090660587,0.35169532022411704,0.1954888808990738
0.4720350790965376,0.1923867832241119,0.019806255640259077,0.012615102117306397,0.173572023277125,0.4159007660687363,0.18178809100707818,0.4470994285196105,0.03945118343255315,0.3041487179728982,0.09225793892601396,0.06264093043183523,0.09494362363934042,0.0697241610612229,0.3510594889807725,0.19423852491021162
0.47218226302406074,0.1937283728767605,0.02010242213614096,0.01262643229453521,0.17243475197811411,0.41156350661116237,0.18213354615877453,0.4432494570252929,0.03926652971888361,0.300590789933747,0.09350570389502942,0.06274551360676449,0.09545025895391698,0.06937842895172999,0.35026103931684976,0.19297479136084286
0.47231570439815374,0.1950310340195555,0.020404326751565324,0.012635613193392632,0.17129539825704287,0.4071820871920304,0.1824713791054596,0.4392362816491565,0.039082193900873884,0.29707294799598466,0.09476306176026335,0.06284975045444996,0.09594235968654541,0.06901731950961222,0.3493031711049956,0.19169837239076973
0.472438430763509,0.19629216918898865,0.02071172705744606,0.012642760226061105,0.1701573675593369,0.4027582831556213,0.1827984257849365,0.43506246434995827,0.03889826611267676,0.29359484398733676,0.0960279091428372,0.06295328553437163,0.09641913165246374,0.06864129920807824,0.34818945523509237,0.19040964517001702
0.4725532515400914,0.19750936091423463,0.021024363220971485,0.012647983614407101,0.16902401127108646,0.3982942816082917,0.18311140551587238,0.43073079987325563,0.03871484925758593,0.2901562390480697,0.09729816576691137,0.06305565961058138,0.09687977114703462,0.06825078244652615,0.3469236007029854,0.18910866495830772
0.47266289337728645,0.19868037296107485,0.021341954715473684,0.012651380920470771,0.1678985737426342,0.3937926703441225,0.1834070499412807,0.4262445519442158,0.03853203287206396,0.2867570539765257,0.09857176259306553,0.06315631314346037,0.09732343853832198,0.06784617467384366,0.3455091918503881,0.18779521151890408
0.4727701059481863,0.19980313688551082,0.021664212534483068,0.01265303203681497,0.16678414019129248,0.389256389014236,0.18368222437266515,0.42160763096173304,0.03834986729587814,0.2833973902674021,0.09984661819543701,0.0632546063005148,0.0977492258533137,0.06742791175558956,0.3439494432624568,0.1864688697747797
0.47287773835017066,0.20087572306319718,0.021990859460787347,0.012652999441619885,0.16568358931008395,0.3846886452782602,0.18393403146522833,0.41682470837912716,0.03816835033869103,0.2800775216372153,0.10112060329627677,0.06334984744691939,0.09815611876929235,0.06699649306288911,0.3422470899049868,0.18512911907494192
0.472988787133613,0.20189629570493203,0.022321650395374596,0.012651333285552784,0.16459955376357618,0.38009279957491693,0.18415989171014804,0.41190126611006056,0.03798743547908494,0.27679785693228215,0.10239149483419141,0.06344132340542373,0.0985429594396698,0.0665525073834211,0.3404044863801619,0.18377542041812212
0.4731064176179349,0.20286305177925051,0.022656389750336813,0.01264807819273671,0.16353439093072433,0.3754722229298333,0.18435759627299203,0.40684358242053587,0.03780705516468241,0.27355887637082643,0.1036569311400138,0.06352832909404507,0.0989084289696282,0.06609665104582292,0.33842383509340324,0.18240729775894102
0.4732339605747445,0.2037741442381116,0.02299494505512224,0.012643279414553059,0.16249016531325128,0.37083013287899186,0.1845253290132018,0.4016586586726966,0.03762714650754515,0.27036104404434574,0.10491439578519375,0.06361019551089056,0.09925106415041643,0.06562973795737857,0.3363074224671896,0.18102440938556996
0.4733748865781336,0.20462759047398685,0.02333725608273141,0.012636987599963477,0.16146864302763206,0.36616941312190965,0.18466165601556558,0.39635409381022335,0.03744767304986906,0.2672047004599767,0.10616124778764134,0.06368631506161788,0.09956929946109234,0.06515270156791404,0.3340578161651543,0.17962660551928145
0.47353276037138653,0.20542117537979407,0.02368333900347271,0.012629261993154365,0.1604712978023104,0.3614924460544077,0.18476548256676043,0.39093791548928236,0.03726864111608696,0.2640899396155392,0.10739478298861711,0.06375616329359435,0.09986151636278126,0.06466658907668019,0.331678015713633,0.17821396874317938
0.4737111775148715,0.20615238309970343,0.024033285309656004,0.012620171950242084,0.159499326971208,0.3568010352168725,0.18483597912844338,0.3854183781761646,0.037090110151363216,0.2610164921112049,0.10861230211818157,0.0638193162043929,0.10012609161530865,0.06417254847970565,0.32917155169696743,0.1767868345914067
0.4739136854040051,0.20681840126905612,0.024387255512990744,0.01260979674974363,0.158553675147971,0.3520964725089972,0.18487247940281937,0.37980373931108236,0.0369121967953683,0.25798367022196983,0.1098111748961107,0.06387546242302262,0.10036144260780014,0.06367180929964172,0.3265425313228348,0.17534579056912747
0.4741436905221979,0.2074162023600139,0.024745467883063935,0.012598223752453102,0.15763506263318894,0.3473797047026435,0.18487435497199717,0.37410202477976556,0.03673507278463568,0.25499041534644457,0.11098889662124602,0.06392440971283311,0.10056606817045365,0.0631656580376156,0.32379563079613793,0.17389165295799763
0.47440435356250693,0.20794266409813691,0.025108182754381994,0.012585545041507143,0.15674401518796735,0.3426515183852162,0.18484087794771922,0.36832081513841125,0.03655895709752806,0.252035416274414,0.1121431338528809,0.06396608540905632,0.10073858339443738,0.06265540952882133,0.3209360374560419,0.17242542191192467
0.47469847384896097,0.20839469486662396,0.02547568316508747,0.012571852739409433,0.1558808916275766,0.33791270677275803,0.18477110967614616,0.3624671281381432,0.03638410303717851,0.24911724029039745,0.11327175612758156,0.06400053057649893,0.1008777470850609,0.06214237546532871,0.31796934688503753,0.1709482164807696
0.475028364342483,0.20876935186032725,0.02584825278748759,0.012557233252734635,0.1550459057601479,0.3331642108141691,0.18466387529140355,0.35654745471403637,0.03621078117795575,0.24623445016911694,0.11437285117637801,0.06402788785022143,0.10098248060958644,0.061627831369575434,0.314901422077512,0.16946119223662143
0.4753957184468124,0.20906394731849381,0.026226154557581986,0.012541760878929954,0.15423913951346696,0.3284072302859992,0.18451784213291897,0.3505679055890564,0.03603925927191605,0.24338570110211397,0.11544472179299878,0.06404838310110533,0.10105187707643801,0.06111298457505862,0.31173822317253214,0.1679654450513579
0.47580148143017614,0.20927613824426777,0.0266096184340291,0.012525492273053763,0.15346054463803813,0.32364330157447346,0.1843316517904382,0.3445343791159317,0.03586978031862641,0.24056981429399196,0.11648586332608717,0.06406230124601663,0.10108519999968185,0.06059895065020094,0.3084856171583826,0.16646191191547594
0.4762457700094208,0.2094039953228207,0.02699884471889702,0.012508464579470064,0.15270993111297743,0.3188743400026811,0.18410405064227123,0.33845270325450777,0.0357025423631922,0.23778582489550684,0.1174949216901478,0.06406995669526308,0.10108187086448422,0.060086748513288796,0.30514918725557066,0.16495130077412284
0.4767278872046097,0.2094460472881508,0.02739401851303693,0.012490698487530705,0.1519869412663196,0.31410264584948655,0.18383399889056964,0.3323287434434871,0.03553768814691855,0.23503300295279494,0.11847063276625812,0.06407165909383224,0.10104144531751502,0.05957731536066276,0.30173409480090135,0.16343408831722728
0.4772464258441741,0.20940129775653996,0.02779532593668321,0.012472204055808385,0.15129101160004332,0.3093308745728621,0.18352075374067306,0.3261684767837795,0.035375309752133585,0.23231084710346703,0.1194117450428277,0.064067675162311,0.1009635780599215,0.05907153056492882,0.2982450597579619,0.1619105866395646
0.47779941179129576,0.2092692125216472,0.02820296710254125,0.012452986606199614,0.15062133688567894,0.3045619731334504,0.18316392369942106,0.3199780343683523,0.035215462552645065,0.22961905179566516,0.12031693382734891,0.06405819278266565,0.10084797691480857,0.058570238424742155,0.2946864623153617,0.160381039300053
0.4783844518630641,0.20904967645456704,0.028617164647419154,0.012433051710322359,0.1499768658442387,0.2997990856467078,0.18276349240753623,0.31376371471866715,0.035058179301106315,0.22695744980184,0.12118473548776576,0.06404330430478636,0.1006943469668446,0.058074266793799637,0.2910624948664462,0.15884571261979588
0.47899887642447053,0.2087429204194335,0.029038167491412022,0.012412409118941254,0.14935634445954687,0.2950454328039935,0.18231981189143498,0.3075319720935471,0.03490348028186312,0.22432593270439033,0.12201354125897924,0.06402302133919588,0.10050232738039394,0.05758444149277159,0.28737730168665004,0.15730497116645534
0.4796398734348985,0.20834941993735379,0.02946624978923581,0.012391075543035441,0.1487583906332093,0.29030417052727875,0.18183356653877236,0.3012893839197279,0.034751378847589,0.22172435280882608,0.12280165826889579,0.06399731148574453,0.10027143518813018,0.05710159656132424,0.28363508734877046,0.1557593350506398
0.4803046103969604,0.20786976863658,0.029901705335496766,0.012369076252367297,0.14818157630210657,0.28557823410014116,0.18130571039458512,0.2950426017731283,0.034601882208616964,0.21915241056304122,0.12354740396526491,0.06396614007114147,0.10000104684110554,0.056626580530924134,0.27984019211218847,0.15420951751866316
0.48099034039761907,0.2073045307398697,0.030344837964660795,0.012346445510415612,0.14762450635178456,0.2808701927777642,0.18073738147703575,0.28879829025271847,0.03445498759455671,0.21660954384781925,0.12424920031435874,0.06392950960912784,0.09969043428664791,0.05616025899020451,0.27599713412244703,0.15265644220737926
0.48169448827188943,0.20665409355220718,0.03079594872818025,0.012323225910231519,0.14708589013577283,0.27618217817999186,0.18012979767426088,0.28256305778498514,0.03431067414854708,0.21409486397053135,0.12490565519414075,0.06388749555786648,0.09933883481466675,0.055703513774081274,0.27211061970540223,0.15110124029009742
0.48241471289351623,0.20591857946197797,0.03125532081835518,0.012299466711831391,0.1465646016841394,0.27151593224089265,0.17948413937470326,0.2763433829348839,0.03416889113425203,0.21160717933440334,0.12551562695565674,0.06384027738712746,0.09894552574836993,0.05525723913899025,0.26818552427821535,0.14954522855189592
0.48314894173771494,0.20509787329597565,0.03172320364475387,0.012275221306814533,0.1460597251912734,0.2668729379414826,0.17880143146577215,0.27014553924038837,0.03402954450879713,0.20914509179698246,0.12607826889795123,0.0637881640843134,0.09850989253822316,0.054822335295058464,0.264226847389708,0.147989870157577
0.48389537419807915,0.20419174715837862,0.03219979940681579,0.01225054394973787,0.1455705830760671,0.2622545639704474,0.1780824595906869,0.26397552099205346,0.03389248765204136,0.2067071162092001,0.12659305135239446,0.06373161336830742,0.0980314873672845,0.054399699658467374,0.2602396461260362,0.14643672049115952
0.48465245069673624,0.2032000176333724,0.032685257301465195,0.012225485899177305,0.1450967447586309,0.2576621902630921,0.17732776237303288,0.25783897180005316,0.03375752275103006,0.20429179192311167,0.12705976014950765,0.06367124404027658,0.09751007565547687,0.053990216170815744,0.2562289515727468,0.14488736093280472
0.4854187854180758,0.20212269305793132,0.03317967667242648,0.012200091106032955,0.14463801523966108,0.2530973078636715,0.17653769928467175,0.2517411211866955,0.0336244126597208,0.20189777764015635,0.12747847138536378,0.06360784107772544,0.09694566828392868,0.05359474301348044,0.2521996732245115,0.1433433237838942
0.4861930615234243,0.20096009835157957,0.033683113866600466,0.012174391574882879,0.14419440354157786,0.2485615909573467,0.17571254987413643,0.2456867458193957,0.03349289689326389,0.19952392673460848,0.12784950355221317,0.06354235326933401,0.09633853793328276,0.053214099029109424,0.2481564962044391,0.14180601287299
0.4869738889527175,0.19971297277848224,0.03419558718593334,0.01214840279169357,0.14376607201658637,0.24405694019214186,0.1748526068220116,0.2396801749270964,0.03336270650935577,0.1971693409158565,0.12817334918674197,0.0634758833904914,0.09568921861596606,0.05284904915316832,0.24410378126226645,0.14027663569506826
0.48775962635765946,0.19838253722648488,0.0347170781090416,0.012122120512320983,0.1433532683938407,0.23958549764406978,0.17395825145650193,0.23372533720191374,0.033233575962972564,0.19483340087223922,0.1284505891612375,0.06340967112931103,0.09499848824652209,0.052500289157718254,0.24004549484973522,0.138756178818175
0.48854817028868325,0.19697052894166955,0.03524752876747301,0.012095520600599879,0.14295624318253367,0.23514963490982124,0.17303001012137229,0.22782582486290961,0.03310525121010516,0.19251577334224734,0.12868179354723835,0.06334506918556239,0.09426733489383815,0.05216843136519585,0.23598520339330356,0.13724544143379153
0.48933674690470974,0.19547920308475758,0.03578683593516956,0.012068562068791526,0.14257515698640147,0.23075191679229068,0.17206859065382885,0.2219849557668347,0.03297749353164929,0.1902163948606549,0.1288674241443396,0.06328351317450819,0.09349690814787812,0.05185399629939376,0.2319261323745499,0.13574510138959203
0.4901218088576208,0.19391130190411202,0.03633484261485407,0.012041191723063416,0.14220999761488104,0.22639504383959672,0.1710748990323309,0.21620582852821849,0.03285007877063093,0.18793543320570694,0.12900777809694894,0.06322648616696744,0.0926884577639459,0.051557414977730615,0.22787125292972227,0.13425578127761187
0.4908991198436761,0.19226999367781156,0.03689133065213323,0.012013349001656844,0.14186054970539808,0.22208177758797684,0.1700500369616211,0.21049137029359155,0.03272279191269461,0.18567322830869,0.12910300592042384,0.06317547887783567,0.09184326237469446,0.05127904013342901,0.22382336348348786,0.13277810319713915
0.49166398042694587,0.19055878479980567,0.03745601928537911,0.011984970574969268,0.1415264400963799,0.21781485273730608,0.1689952817526959,0.2048443767690506,0.032595417178897294,0.1834302150594387,0.12915318756421332,0.06313194666918095,0.0909625551481833,0.05101916047206877,0.21978515691618494,0.1313127309814841
0.49241149329841294,0.18878140941846122,0.038028571007962746,0.011955994620575354,0.14120722913193398,0.21359688066177604,0.16791205031828466,0.19926754409332112,0.032467724029031884,0.18120683103320942,0.12915842331949412,0.06309727013884027,0.09004746714490985,0.05077801415246025,0.21575927249736193,0.12986039925336418
0.49313681603197357,0.18694170183734882,0.0386086010212851,0.011926364672554224,0.14090250683298605,0.20943024895055007,0.16680184943950793,0.19376349220147462,0.03233945076148176,0.1790034126601441,0.12911891423563135,0.06307273701295406,0.08909901738315171,0.05055580044851947,0.21174833233605056,0.12842192922975515
0.49383538627689105,0.18504345742812886,0.039195686176873995,0.011896032931333681,0.14061197853886453,0.20531703424082406,0.16566621467559306,0.18833477944927066,0.03221029159366452,0.1768200946189809,0.12903502531102892,0.06305955695285419,0.08811815448415455,0.05035268926209551,0.20775496255494963,0.12699823170707947
0.4945031088968795,0.18309030071748528,0.0397893716604565,0.011864962910479681,0.14033553730315917,0.20125896791957754,0.1645066404016073,0.1829839084655083,0.0320798958521812,0.17465675281623333,0.12890732918745904,0.06305889752826606,0.08710582211165897,0.0501688282051327,0.2037817997885782,0.12559029809961436
