EMG01_right_gast_med,EMG02_right_glut_max,EMG03_left_gast_med,EMG04_left_glut_max,EMG05_right_glut_med,EMG06_right_bic_fem,EMG07_right_rect_fem,EMG08_right_vast_lat,EMG09_right_vast_med,EMG10_right_tens_fasc_lat,EMG11_left_glut_med,EMG12_left_bic_fem,EMG13_left_rect_fem,EMG14_left_vast_lat,EMG15_left_vast_med,EMG16_left_tens_fasc_lat
-0.0005659968141492891,0.0458813396630453,-0.12968019012966445,-0.030755816714704672,-0.0029041266990230707,0.0033226626753461953,-0.007053627383285796,0.00849482106716839,0.1108519486671234,0.0064134758616417415,-0.008706423776409587,0.004613694977236869,0.008224445280219612,0.021495624944557732,-0.00814852180388842,0.022550559131542726
-0.0003634788742165459,0.04640951132842336,-0.11404979042596303,-0.028479492324571407,-0.0015057561439132058,0.008361687709142453,-0.001369872486366181,0.012786914184069988,0.11780900516761758,0.009217582576426016,-0.005380325771571894,0.005739723266401766,0.008496778816254703,0.023951342366394353,-0.005112440962585218,0.023634076710697536
-0.0001598632237145829,0.04694881741592895,-0.09854864412755959,-0.026233305845802482,-0.00011375877290927145,0.013424583736268808,0.00433776646307073,0.0171077861835285,0.12481825243100775,0.012032160532092495,-0.0020789216591417204,0.006869848208313196,0.008769466151857884,0.026415173630829673,-0.002109185947767992,0.024720538777721335
4.468253324419899e-05,0.04749874839530236,-0.08320122376489703,-0.02402204635812685,0.001269711568492999,0.01850753159639916,0.010063381932198481,0.0214532460412122,0.13187421451653933,0.014853684774043877,0.0011931574334966375,0.008003103095014058,0.00904206958184292,0.028884684815779434,0.0008563077077241791,0.025808355528022523
0.0002499966785099244,0.04805879308112469,-0.06803089093871015,-0.021850119853062712,0.0026426386444233147,0.023606767530320386,0.015801344253224447,0.02581933345189142,0.1389711891627754,0.017678905902899358,0.004431390815360239,0.009138510866066476,0.009314160043563622,0.03135746835096848,0.00377932822741415,0.026896005009402906
0.00045592524669546563,0.048628448090118355,-0.05305953512421635,-0.01972145806128661,0.0040031959452696796,0.02871863791250968,0.021546408793327337,0.030202412308930816,0.14610323126012548,0.020504925800022205,0.007631410585250286,0.010275087798673312,0.009585327665747125,0.03383117281555133,0.006655448344836274,0.027982060546691084
0.0006623237010759175,0.04920722020201731,-0.03830728708208819,-0.017639471634475035,0.005349783568243878,0.03383966270775064,0.027293796046080104,0.03459923377904164,0.15326415927031287,0.023329237811384018,0.010789039946502167,0.011411851426065343,0.009855188967616859,0.03630352636241196,0.00948057239705535,0.02906520564397188
0.0008690583833352326,0.049794621909769,-0.023792327460861164,-0.015607041194161307,0.006681046316858241,0.038966595466478245,0.03303923837738609,0.03900696453088831,0.1604475827700781,0.02614973452354405,0.013900326223443178,0.012547830864051862,0.010123389382448498,0.03877235176708547,0.012250969257861117,0.030144236561060644
0.0010760076783370206,0.05039016061947355,-0.009530800219184548,-0.01362654015642929,0.007995873713276752,0.04409647656429329,0.03877899174503639,0.04342318221114987,0.167646941241725,0.028964686849347707,0.016961568880359535,0.013682077970018526,0.010389601262647971,0.041235575123615816,0.014963290798422811,0.031218052903389918
0.0012830628205099156,0.05099332220155044,0.004463164878511283,-0.011699882792086367,0.009293383363771196,0.0492266765681301,0.04450981219372199,0.04784584170223113,0.17485554853840163,0.03177269909969457,0.01996934208329287,0.014813677998232399,0.010653517768250792,0.043691230056961995,0.01761457593936155,0.03228563701755634
0.0014901282609289372,0.05160354980827033,0.0181773223470182,-0.00982859069197394,0.010572889900619144,0.054354926512957376,0.05022889859227503,0.05227321694687832,0.18206664012297802,0.03457264540942872,0.02292051067349012,0.0159417586062546,0.010914843223349123,0.0461374590276032,0.020202240753349705,0.033346023531020855
0.001697121512463754,0.05222022127277711,0.031601081058742764,-0.008013871387472518,0.011833862277619593,0.05947933195523859,0.05593380457716498,0.05670382370818224,0.18927341968004935,0.03736359287034043,0.025812237779937332,0.017065496395535475,0.011173281743087885,0.048572512733629794,0.022724055364795753,0.03439826187107983
0.0019039723985435739,0.052842634319245047,0.04472518742863859,-0.006256703344225015,0.013075872741086186,0.06459836796891054,0.06162232425087482,0.061136329054910954,0.19646910123484654,0.04014471661098728,0.02864198202656407,0.018184120462994464,0.011428529138776043,0.05099474809943088,0.0251781087023141,0.035441381989829115
0.0021106216489486787,0.053470008967714366,0.057541339999835635,-0.004557918326017506,0.014298545771372982,0.06971085288033896,0.06729236515965749,0.06556945523063475,0.20364694260101915,0.04291522000999252,0.031407482418917526,0.019296912699103518,0.011680273789596948,0.05340262490542145,0.027562762460782386,0.0364743821891084
0.0023170188118384356,0.0541015055845957,0.07004178960907664,-0.0029182613792500187,0.015501525707723262,0.07481589958450205,0.07294184845087735,0.07000189705866432,0.21080026590019785,0.0456742894298032,0.03410672942058935,0.020403204843117067,0.011928206545602026,0.055794700683587856,0.029876595850835,0.03749624770547568
0.0025231194851770707,0.054736248857659826,0.08221906451219135,-0.0013384062858901003,0.01668447832881584,0.07991284468115788,0.07856868855474498,0.07443228511690778,0.21792246107525823,0.04842110341414875,0.03673792146220856,0.021502372538460744,0.012172034455426249,0.058169623178061056,0.03211834289425143,0.038505986222700364
0.0027288819157923147,0.055373350690872,0.0940659600767708,0.00018107130882634025,0.017847118185363314,0.0850011572795355,0.08417085966043333,0.07885920628327424,0.2250069687761051,0.051154878117036555,0.03929940709827511,0.022593826786419285,0.012411493900810444,0.06052611949522848,0.034286824184692734,0.039502662309565395
0.0029342635995895446,0.05601192969667913,0.10557576323995901,0.00163973601828092,0.018989240376574585,0.09008033590877189,0.08974650098091902,0.0832812529880486,0.23204723974895408,0.05387491666552277,0.04178961476103821,0.02367700329137173,0.012646361390943101,0.06286298100338457,0.03638088247420999,0.04048542333660478
0.003139219626233511,0.05665112632927282,0.11674255009150505,0.0030373280058281034,0.02011074408630113,0.09514982315284377,0.09529401485690979,0.08769706833170546,0.2390366688856385,0.056580647261746324,0.04420698504997793,0.024751350221284586,0.012876461170439188,0.06517904309732768,0.03839934714535158,0.04145351473479648
0.0033437039861356622,0.05729011285923808,0.1275614386342511,0.004373785750256444,0.021211645114030047,0.100208982494197,0.10081214124484927,0.09210537649122486,0.24596850333686374,0.059271647277926304,0.04654994186806547,0.025816314870935508,0.01310166889343086,0.06747315913780554,0.0403410466850892,0.042406283132199636
0.003547672841907401,0.057928097576642454,0.13802876189941718,0.005649256765252024,0.02229207757004513,0.10525714922889513,0.10630000449941918,0.09650499845018076,0.25283573117209274,0.0619476526691986,0.04881692530102141,0.02687132963796942,0.013321910777251122,0.06974416818368667,0.042204855908269216,0.04334316671561825
0.0037510880675235077,0.058564322821497095,0.14814215517107035,0.00686409729389369,0.023352285713231693,0.11029371822998146,0.11175713027877535,0.1008948541242701,0.2596309845168489,0.06460855261259152,0.0510064639814683,0.027915797883620017,0.013537157881358664,0.07199085652710085,0.04398975118372111,0.04426367306594452
0.003953920299220336,0.05919805666616638,0.15790055691727156,0.008018862388159919,0.024392607553654664,0.11531822885874612,0.11718343241042696,0.10527395276284744,0.26634651715877544,0.06725436986774268,0.0531172522623518,0.028949081974234177,0.013747415459348851,0.07421191943592889,0.045694860320926046,0.04516734563526755
0.0041561512517603524,0.05982857830429534,0.1673041282760879,0.009114288029481013,0.02541345228679875,0.12033043245453,0.12257917150441526,0.10964137400313416,0.27297428282283814,0.06988522795702186,0.05514821746509195,0.029970498080703466,0.013952707693892025,0.07640594225976088,0.04731950401316733,0.046053722916886024
0.004357775083867774,0.06045515742729775,0.17635410021491918,0.010151267076785483,0.02641527386109756,0.12533033916858083,0.12794488884594687,0.11399624208750968,0.2795060755980419,0.07250130687539502,0.05709857293682427,0.03097931994044102,0.014153060660860261,0.0785714153239709,0.048863227301116925,0.046922303669593365
0.004558798647921949,0.061077028084827456,0.18505256053379104,0.011130820851118533,0.02739854300018673,0.13031824243896398,0.1332813205065179,0.118337695509553,0.2859336836201325,0.07510278962190246,0.0589678533057709,0.03197478830177289,0.01434849184473854,0.0807067728874212,0.05032581981540786,0.04777253864260166
0.004759240528511498,0.06169335944378694,0.1934021946691377,0.012054068096814547,0.02836372006418625,0.1352947208805777,0.13858929757177477,0.12266485377624792,0.29224903514786843,0.07768980580614394,0.060755929239829094,0.032956121990187534,0.014539014074710746,0.08281043800709414,0.05170732390086553,0.04860385497368338
0.004959128856507722,0.062303232626942075,0.2014059949131384,0.01292219292463258,0.029311232917183357,0.14026061864331252,0.14386963882323778,0.1269767821697671,0.2984443285823168,0.08026238941592799,0.062463000146406,0.033922529395208685,0.01472465161464865,0.08488086516801456,0.05300803011673318,0.049415696601560165
0.005158497971934425,0.06290563760871867,0.20906697782045502,0.013736413159581951,0.030241465930749886,0.14521700627482603,0.14912304532757284,0.13127245451020858,0.304512138008506,0.08282047081665608,0.0640895645340268,0.03487322042413769,0.0149054594967587,0.08691657832969953,0.0542284600422956,0.05020756202760506
0.005357384091328356,0.0634994942579613,0.21638800815385353,0.014497952872336762,0.03115476132273838,0.15016512476800892,0.1543500182302173,0.1355507131286305,0.31044548631223523,0.08536390286015476,0.06563636910143386,0.035807418855299915,0.015081539981869556,0.088916202327962,0.05536933678873283,0.0509790319815302
0.005555820635080424,0.0640836868169668,0.22337181463179154,0.015208027591581722,0.03205142568950279,0.1551063157846105,0.1595508270332715,0.13981022472181176,0.31623787886799126,0.08789250028464342,0.06710433893108415,0.03672437485790276,0.015253053935509284,0.0908784858266021,0.056431544115655895,0.05172978480362066
0.005753835025627921,0.06465710026202466,0.23002115856114733,0.01586784698563705,0.032931734636795856,0.16004194107724407,0.16472553006318685,0.14404943698564873,0.3218832922071469,0.09040607468511948,0.06849449234527126,0.03762337723733393,0.015420226172061537,0.09280231437937433,0.05741607555883573,0.05245959818903799
0.005951448798546335,0.0652186541111728,0.2363390429072982,0.01647862792959112,0.03379593393959196,0.1649732939627607,0.16987401672505179,0.14826655545319645,0.32737611392580196,0.09290445944399367,0.06980785340429746,0.0385037647314066,0.01558334433912668,0.09468671260851141,0.05832397547023914,0.05316833686425317
0.006148680703137805,0.06576733213242253,0.24232889165247704,0.017041607824093488,0.03464423805523572,0.16990150723154857,0.17499604454473275,0.15245955793900035,0.33271103230780796,0.09538752374110995,0.07104539619645786,0.03936493545062377,0.015742751468514112,0.09653083499600852,0.05915627823978444,0.05385592672875077
0.006345550793382554,0.06630220641359638,0.2479946794771054,0.01755805425266538,0.03547682681492651,0.17482747441878838,0.18009126496794473,0.15662623968999964,0.33788287661338917,0.09785517548351422,0.07220805276053313,0.040206353357168406,0.015898832851046343,0.09833394527959989,0.05991396435538281,0.0545223169451945
0.006542084022577823,0.0668224543161639,0.2533410047805987,0.018029270797633883,0.036293840983627555,0.1797518174378307,0.18515924047511279,0.1607642708789872,0.3428864115811397,0.1003073535934675,0.0732967744210061,0.041027550550923456,0.01605199835022132,0.10009538491089483,0.06059795591491462,0.05516743541878188
0.006738312829222942,0.06732736695894202,0.2583731014665763,0.01845659926658324,0.03709537716335935,0.18467491581210732,0.19019945609075978,0.16487125607696523,0.34771611424535753,0.10274401051541178,0.07431260829436653,0.04182812411434829,0.016202662691430364,0.10181453144016588,0.06120915189446598,0.0557911540258565
0.006934278522023333,0.06781634807370371,0.26309678797858754,0.01884141869851448,0.037881482282945585,0.18959697250043794,0.19521132838416322,0.16894479069245938,0.35236602338902745,0.10516508603727748,0.07525676330800325,0.04260772639337104,0.01635123009163396,0.1034907480249079,0.06174847997702436,0.05639328481275058
0.007130031341625579,0.06828890235496747,0.2675183556636474,0.019185141605083594,0.03865214772663875,0.19451808502333343,0.20019421461756848,0.17298250912500865,0.3568297632345445,0.10757047359478611,0.07613065806931339,0.043366047877579486,0.016498091068778385,0.10512332551649656,0.06221694488158699,0.05697360992821193
0.007325629154801059,0.06874461280000782,0.27164440241090493,0.01948920795826983,0.03940730304728239,0.19943831089282824,0.20514742389772075,0.17698211907962913,0.36110073750367033,0.10995998019185789,0.0769359484280698,0.04410279228940665,0.01664363192237976,0.1067114259847459,0.06261566658053154,0.057531925763096556
0.007521134819175081,0.06918310700556544,0.27548162131709303,0.019755077463494773,0.04014680947101246,0.20435772559578444,0.2100702311557933,0.1809414167542396,0.36517239766702053,0.11233328180425099,0.07767453392229463,0.044817645423729374,0.016788248783294185,0.10825405235999047,0.06294590694463315,0.05806808244915606
0.007716612338708816,0.06960401294702856,0.2790365714080317,0.019984220659267176,0.04087045451327384,0.2092764712860117,0.21496189365701643,0.18485827844089073,0.3690385085979709,0.11468988328423449,0.07834854365292189,0.0455102472297334,0.016932358797266223,0.10975006402696412,0.06320908404302973,0.05858201148428398
0.007912122007041953,0.07000691014170231,0.2823155041854598,0.020178109364100742,0.04157794980763059,0.21419479424749405,0.21982166864938352,0.18873062540897964,0.3726933837759707,0.11702910228328661,0.07896030339499094,0.046180185206825854,0.017076406028824317,0.11119822718289238,0.06340677403021132,0.059073739299782345
0.008107715456509257,0.07039129617006272,0.2853243356568898,0.020338206952295185,0.042268932491352995,0.2191130691281939,0.22464882980206946,0.19255636065314827,0.37613207782302355,0.1193500881884382,0.07951228683379348,0.04682701769089608,0.0172208619058744,0.11259727502582813,0.06354070121801386,0.05954338567414741
0.008303432940929745,0.07075659210338603,0.2880687668805639,0.020465958885840036,0.04294296779175836,0.22403180794773753,0.22944267933237075,0.19633327805282028,0.379350525723233,0.12165186356438072,0.08000705464059645,0.047450315072803624,0.017366220541437324,0.1139459648655345,0.06361271751178031,0.059991147072349524
0.008499304581222649,0.07110218711846622,0.2905544603804054,0.020562783941698963,0.04359955009297288,0.2289516519972262,0.23420255222240388,0.20005895951562372,0.38234562018067775,0.12393337025515398,0.08044718562213608,0.04804970301364376,0.01751298974533211,0.11524312858685022,0.06362477285399794,0.06041726613771073
0.008695354372097857,0.0714275003975964,0.29278718947635707,0.020630067262526208,0.044238100845920426,0.23387334502338425,0.23892780870887295,0.20373070979475555,0.3851152211159246,0.12619351296374864,0.08083520854921952,0.048624900709143014,0.017661678925152923,0.11648771415231754,0.06357887864667955,0.06082198958073249
0.008891604573991685,0.07173204170083414,0.29477293237134367,0.02066915725700989,0.044857964011990846,0.23879768656528938,0.2436178113006815,0.20734557955093086,0.3876580941724013,0.12843119815256104,0.08117355477530203,0.04917575164617497,0.017812785817060493,0.11767881597893506,0.06347706630686073,0.06120552210307153
0.0090880793000124,0.0720154633058327,0.2965179057509926,0.02068136690265845,0.04545840448941232,0.2437254650174289,0.24827188294102523,0.21090046842589422,0.3899737781815943,0.13064536593462606,0.08146455238346219,0.04970224470726682,0.01796678582009696,0.11881569231207124,0.06332134314741707,0.061567996024642226
0.009284806981499241,0.0722775998898126,0.2980285372428184,0.020667977120918685,0.04603861605255872,0.24865737092690227,0.25288924358115217,0.21439225761110137,0.39206238470193033,0.13283501258715266,0.08171045780872731,0.05020452403418218,0.018124128209333134,0.11989776814637941,0.0631136510916538,0.06190947577310843
0.009481821555597894,0.0725184934551839,0.2993113805728402,0.020630239744485333,0.04659773940812925,0.2535938921534338,0.2574689233708138,0.2178179350044097,0.39392433588280906,0.13499920143997188,0.08191349954197133,0.050682886714960663,0.018285239094096642,0.12092462278651449,0.06285584160383868,0.06222999293618871
0.00967916229973547,0.07273840117993326,0.30037298129723855,0.020569379392519488,0.04713488642472594,0.2585352023727793,0.26200965824048844,0.22117469791003866,0.39556004989390464,0.13713706017898578,0.0820759148252174,0.05113776807140832,0.018450525968510944,0.12189596176352699,0.06254967839060635,0.06252959043942871
0.009876872319220194,0.07293778506567646,0.30121970427466815,0.020486594380094432,0.04764916698040129,0.2634810806336931,0.26650980201744445,0.22446002429074682,0.39696962749136677,0.1392477630535173,0.08219997450267935,0.05156971506159609,0.018620379363206135,0.12281157348594153,0.062196862208570416,0.06280836053511815
0.010074995769455386,0.07311728339673462,0.30185755982788826,0.020383056826340583,0.048139715551644376,0.2684309069300207,0.2709673142572044,0.22767170496498226,0.39815268608644044,0.14133049707577566,0.08228799627493963,0.05197934903919759,0.01879517049221767,0.12367127167127566,0.06179906182466632,0.06306647172530917
0.010273573958885167,0.07327766522953184,0.302292113922176,0.020259912150358148,0.048605714358273044,0.2733837343893226,0.27537984815631766,0.23080783119113524,0.3991084593078689,0.14338441203538446,0.08234234725850792,0.0523673197875038,0.018975246038166096,0.12447482524550191,0.061357941453497176,0.06330418317130043
0.010472640529793804,0.07341977030589372,0.3025285408573256,0.020118278154884043,0.049046409759457885,0.27833839509758707,0.27974490001328295,0.2338667347055424,0.3998360961614961,0.1454085549996737,0.08236543724461537,0.05273425706171771,0.019160923606357252,0.1252218844305513,0.06087518261063817,0.06352184594806126
0.010672216414095884,0.0735444392927396,0.3025717690066805,0.019959243895346916,0.049461118911001856,0.28329360348168,0.2840599722582355,0.23684688032309606,0.40033500900496544,0.14740179987001223,0.08235970437118136,0.053080736721846926,0.019352492144033968,0.125911930337127,0.06035250030797407,0.06371989128661727
0.010872306465462679,0.07365245149882482,0.30242663171727063,0.019783868517230983,0.04984922442673927,0.288248045249312,0.28832272851751634,0.23974671445502163,0.4006051890474061,0.1493628050907592,0.08232759507431228,0.05340728015427566,0.01955021782817122,0.12654427937861,0.05979165366455106,0.0638988066684171
0.011072899680680539,0.07374450230367793,0.3020979822416283,0.019593180219113604,0.05021015585149505,0.2932004487391941,0.29253113047713375,0.2425644968612223,0.40064746587630073,0.15129003166458418,0.08227154018346586,0.05371438517086519,0.01975435176639786,0.12711814153355416,0.05919445110822201,0.06405910126247702
0.011273972653926545,0.07382123493037009,0.30159076375321164,0.019388175464477065,0.050543358009908945,0.29814963674504563,0.29668354628611004,0.24529819635218203,0.4004636979670112,0.15318181381776377,0.08219392888870035,0.054002568102420975,0.0199651359647865,0.1276327017022449,0.058562750416644396,0.06420126270877666
0.011475494218208112,0.07388330162394305,0.3009100311451809,0.01916981852498887,0.05084825204080434,0.30309455791400347,0.3007788210422465,0.24794552928026306,0.40005688438561504,0.15503644877808986,0.08209708206718282,0.05427240093031608,0.020182806015161515,0.12808719900959706,0.05789845390742969,0.06432571376797439
0.011677429816058656,0.0739314225357238,0.3000609242831022,0.018939041394249134,0.05112420830941752,0.3080342975242286,0.3048163015256574,0.250504123177986,0.3994311918508586,0.15685228297728182,0.08198322614147013,0.05452453831672472,0.0204075899523952,0.12848099508899438,0.057203499148687845,0.06443279038446363
0.01187974514598314,0.07396643039996241,0.2990485951313634,0.01869674406715177,0.05137055316759217,0.3129680677574677,0.3087958096995138,0.252971722002459,0.39859189575695686,0.15862778612497086,0.08185446828791293,0.054759733487555154,0.020639703154270547,0.12881362780843827,0.05647984562956308,0.06452275714676643
0.0120824089295511,0.07398929902631354,0.2978780936290658,0.018443795139245343,0.05158660961701239,0.31789517754225993,0.3127175624193576,0.2553463745128963,0.39754523839935907,0.1603616080652233,0.08171277572125704,0.05497884273431726,0.02087934012044011,0.1290848474561967,0.055729457907608894,0.06459584904415823
0.012285394677492182,0.0740011547982707,0.2965542207990174,0.018181032645776564,0.051771751911369235,0.32281498177561235,0.31658203806618207,0.25762658403075883,0.39629821218239725,0.1620526140503032,0.08155996594549517,0.05518281908834033,0.021126666745081155,0.12929463316141068,0.05495428583458451,0.06465231777644777
0.012488681366829141,0.07400327151277822,0.29508138606804724,0.017909265033884784,0.051925457393886196,0.32772680940281645,0.32038979420032754,0.25981140826182303,0.39485827971020476,0.16369989513791158,0.08139771210577919,0.0553726964178496,0.021381819045882763,0.1294431882377075,0.054156242550428724,0.06469247195812364
0.012692252974155776,0.07399704993494469,0.2934635522871989,0.01762927214551985,0.05204734905957162,0.3326298696212421,0.32414124569667385,0.2619005005049636,0.39323304608196136,0.16530275175792494,0.08122755798906006,0.05554956575407294,0.02164491075442202,0.12953091414138568,0.05333718112653669,0.06471670847054059
0.012896096842206156,0.07398398431062086,0.2917043189454634,0.017341806084171144,0.05213722599615707,0.3375231355277049,0.3278364527297055,0.26389408685248533,0.39142992201629995,0.16686064999602224,0.08105093490261463,0.05571454603334425,0.021916045787627406,0.1295583637650222,0.05249887400937837,0.06472553343940052
0.01310020088774209,0.07396561873659156,0.2898070902777465,0.017047591845602974,0.05219507962029638,0.3424052071523401,0.3314750325137609,0.2657928777345452,0.3894558818271955,0.16837315168540418,0.08086917768061183,0.055868751633347445,0.02219533062599843,0.12952617578628522,0.05164300506623909,0.06471957183747264
0.013304549688556636,0.07394349670986096,0.2877752475569701,0.016747327610751653,0.05222109448803107,0.3472741827611598,0.3350562634286626,0.26759791618282386,0.38731743887452813,0.16983982086824936,0.08068353969207968,0.056013259084747594,0.02248288441357327,0.12943499271711573,0.05077117975121848,0.06469956525733057
0.01350911951616409,0.07391910887092923,0.28561229157905493,0.01644168462621883,0.052215633387124656,0.3521276112944642,0.3385793077815349,0.2693103692710166,0.38502083625994526,0.17126011410734068,0.0804952066427016,0.0561490766368826,0.02277884596612206,0.12928537125782136,0.049884945912242,0.06466635793591803
0.01371387246838637,0.07389385109778439,0.2833219461220438,0.016131306632226543,0.052179207372747054,0.35696257352297045,0.34204344279205123,0.270931295075871,0.3825723209693158,0.17263328439689696,0.08030530872787675,0.05627712377479408,0.023083377089362377,0.1290777130782621,0.048985814895949636,0.06462087162032526
0.013918750899956292,0.07386901059889801,0.28090821541388333,0.01581680883682171,0.05211243233174516,0.3617758512385991,0.3454482544721795,0.2724614814469979,0.3799783895074577,0.17395835309465998,0.08011493050120558,0.05639822669487983,0.023396661854069484,0.12881225588442916,0.04807527914245045,0.06456407032977902
0.01412367515124494,0.07384578360323767,0.27837539146278856,0.015498776773554131,0.05201597448904789,0.36656411825092117,0.34879378325088994,0.2739014639841946,0.3772459705460089,0.17523417422970636,0.07992511770310361,0.05651312620802606,0.023718901739721632,0.12848913296367764,0.04715482577899925,0.06449691648694933
0.014328546558150532,0.0738253066897856,0.2757280103180137,0.01517776606857875,0.051890493353351844,0.37132412326298936,0.3520806129848291,0.2752517175109142,0.37438254023759254,0.1764595521315677,0.07973688026597149,0.056622487877711465,0.024050306831763638,0.12810846619121058,0.046225945942929045,0.06442032464077095
0.01453325406551565,0.0738086834458483,0.27297075971669654,0.014854303979168705,0.051736604791629344,0.37605285233380303,0.3553098983421876,0.27651291328145866,0.37139617019112175,0.17763336264148705,0.07955119078148336,0.05672690779676161,0.024391083526479146,0.12767045708853741,0.04529013980148934,0.06433513103602954
0.014737681742097329,0.07379700070754713,0.27010834388092575,0.014528892301651636,0.05155488668507248,0.3807476575002181,0.3584833292219301,0.27768615356027504,0.3682955121214558,0.17875465791481449,0.07936897788143585,0.05682691304639387,0.024741419905583137,0.12717546288377252,0.0443489174679355,0.06424209869496093
0.014941716098632334,0.07379133426759031,0.26714531539146835,0.014202010650897516,0.05134592208125691,0.38540633807059915,0.3616030346090362,0.27877315072254605,0.3650897265918614,0.17982274879546462,0.0791911142393397,0.056922957791140774,0.02510147277322144,0.1266240538739032,0.043403796219854025,0.06414195591312317
0.015145252912268302,0.07379274455471219,0.26408591421331945,0.01387411955636578,0.05111035425696596,0.3900271624033807,0.36467143178141825,0.2797763383029775,0.36178836584745583,0.18083725941719367,0.07901839922952328,0.05701541621832859,0.025471363248942534,0.12601704929363608,0.042456294592566286,0.06403544787758977
0.015348203235700391,0.07380226333028073,0.2609340030512811,0.013545663177252348,0.05084893530427495,0.39460882080175197,0.3676910297953949,0.2806989060745815,0.3584012223701257,0.18179814969103197,0.07885153665573195,0.057104573676636836,0.025851183626176714,0.12535552995349594,0.041507924038307935,0.06392338574662841
0.015550498252952393,0.07382087289357829,0.25769315107726226,0.013217071500355648,0.05056256239190692,0.39915030445585753,0.37066419845003235,0.28154475664823314,0.3549381554397263,0.1827057027054067,0.07869111126149146,0.05719061741568445,0.02624101001623633,0.12464082706266548,0.040560178906621516,0.06380668777195303
0.015752092639815717,0.07384947962650011,0.2543668052311089,0.012888761914800276,0.05025229993296747,0.40365071088812826,0.3735929359630377,0.28231838676735405,0.3514089077157607,0.18356047578543244,0.07853757502072686,0.057273628496557386,0.02664091411319054,0.12387448783933981,0.03961452551286643,0.06368641033420686
0.015952966099088545,0.07388888647952266,0.2509584606163014,0.012561140096514605,0.04991938680692528,0.40810898263075945,0.37647871993568593,0.28302470189734386,0.3478229227821137,0.18436321596658048,0.07839125356368296,0.05735357638900267,0.027050971457222933,0.12305821967405921,0.03867239102240922,0.06356376718354718
0.016153122771792455,0.07393977526276818,0.2474717950496651,0.01223460017901072,0.04956522879298315,0.41252363655611063,0.3793225210451145,0.28366877735984264,0.34418918242037455,0.185114742819441,0.07825236967503668,0.057430316753069484,0.027471265609561688,0.12219381569234913,0.03773515279223049,0.06344013570953323
0.016352588277337876,0.07400270858228761,0.2439107613729305,0.011909524231892493,0.049191377401502576,0.41689263531319176,0.3821249547521213,0.2842555986777028,0.34051610423112266,0.18581580843122497,0.0781210723374756,0.05750359239604269,0.02790188802177432,0.1212830655066562,0.03680412882336271,0.06331704968747948
0.016551404208834813,0.07407814792162615,0.2402796342640103,0.011586281111016264,0.0487994972439316,0.4212135065917921,0.3848864752889325,0.2847898668342992,0.3368115349994964,0.1864669738111384,0.07799746378769332,0.05757303832742335,0.028342933805377394,0.12032766469474653,0.03588057084514601,0.06319617863408121
0.016749620003812114,0.07416647543642234,0.2365830114654575,0.011265224781196343,0.048391324853649324,0.42548362301332243,0.3876075477155467,0.2852759723488347,0.33308282033307696,0.18706857302864227,0.07788162210208666,0.05763819185665338,0.02879449404258944,0.11932915902334856,0.034965662555703304,0.06307929461826385
0.016947282223701007,0.07426801101262598,0.2328257723185789,0.010946692241371325,0.0479686223657367,0.4297004906760566,0.3902887802507072,0.2857181429266905,0.32933689417080564,0.18762079601441795,0.07777361812795922,0.05769850746231694,0.029256645671647652,0.11828895732443552,0.03406052355643529,0.06296822807215599
0.017144423034251465,0.07438302198469644,0.2290129990369537,0.010631001535806315,0.047533131788432194,0.4338619761049747,0.39293101275686987,0.2861206598864958,0.32558035247407624,0.18812383690354784,0.07767352581275856,0.05775337551149442,0.029729440270564088,0.1172084024208162,0.03316621601608978,0.0628648147856577
0.017341053699288966,0.07451172473773361,0.22514986811351265,0.01031845103149745,0.04708654209522767,0.4379664514748833,0.3955353592916989,0.2864880503081645,0.3218195053510959,0.18857804074736775,0.07758142524295185,0.05780214373281103,0.030212893197528786,0.11608885949735157,0.03228375112513349,0.06277084338263587
0.017537168707341545,0.07465427785722477,0.22124152053935608,0.010009320799309416,0.04663048234333782,0.44201284573216015,0.39810320458278914,0.2868252251555436,0.3180604107178844,0.18898402122474103,0.077497397977289,0.05784414007245931,0.030706974490115984,0.11493179457639276,0.03141409470894075,0.06268802704033416
0.017732759198294964,0.07481076694797655,0.21729292360792415,0.009703875420109066,0.046166539034902684,0.44600059664524344,0.40063615608589626,0.2871375592728044,0.3143088928048794,0.18934274150751432,0.07742151454404232,0.057878695299529034,0.03121160267477882,0.11373883492858677,0.030558172319497357,0.06261801779979094
0.017927830034791283,0.07498118260211886,0.21330875758096457,0.009402366967211447,0.04569628128841133,0.44992950651284297,0.40313595489823645,0.28743091294315665,0.31057054859233824,0.18965555272169327,0.07735381427140585,0.0579051635632663,0.03172664222117398,0.11251180896057639,0.02971687406068083,0.06256245163957361
0.018122416809625175,0.0751653992324918,0.20929338095866237,0.009105037570551795,0.045221280832447544,0.4537995115367995,0.40560435016739677,0.2877115980218609,0.3068507447190862,0.18992418719264256,0.07729427794116964,0.05792293905751688,0.0322519048483917,0.11125276429852017,0.028891059285984948,0.06252299901755633
0.018316601352432425,0.0753631701773052,0.20525089138784697,0.008812121436842972,0.04474312389161788,0.45761038113014063,0.4080429427216197,0.2879862943776664,0.30315460670402194,0.19015070666270914,0.07724279615908566,0.057931467024700596,0.03278715432517633,0.10996396401293677,0.02808156116214944,0.0625014075053203
0.018510524728730434,0.07557414752723432,0.20118523316992745,0.008523846279216861,0.04426341584611059,0.46136141144398246,0.41045300442519445,0.2882619244582706,0.2994870015992866,0.190337408687839,0.07719914440615891,0.05793024753242104,0.03333211388147204,0.10864786212731094,0.02728919094638545,0.06249953314836123
0.01870439673611995,0.07579791774080745,0.19710029704126258,0.008240434141856006,0.0437837798730418,0.46505126772639915,0.41283529445853534,0.28854549526166756,0.295852514589236,0.19048669721239336,0.07716298115846013,0.05791883077198688,0.033886474933418544,0.10730706064816753,0.0265147417086496,0.06251935933386217
0.018898500984075892,0.07603403994254349,0.1929999945675191,0.007962101636343156,0.04330585089531148,0.4686780835852872,0.41518993384005104,0.28884391789740044,0.2922554196529051,0.19060092853217642,0.07713387346307368,0.057896803046781325,0.03444990556684001,0.10594425128606157,0.025758991168098624,0.06256300279354787
0.019093194803018798,0.07628208099087319,0.18888830651289104,0.007689059635446904,0.04283126613061836,0.47223972972901185,0.41751640683853053,0.28916382675627184,0.28869964426607275,0.19068227110072752,0.07711133681447531,0.05786376312482933,0.0350220571451286,0.10456214575446787,0.025022703317249876,0.0626327072146379
0.01928890346800523,0.07654164495042277,0.18476930609387135,0.0074215124955114824,0.04236165342518442,0.4757340941271264,0.4198136844519145,0.28951145301999637,0.2851887282330015,0.19073265333998413,0.07709487512139784,0.05781928920810127,0.03560256749720965,0.10316340001024076,0.024306628576752688,0.06273082569912834
0.01948610853819088,0.07681239474015963,0.1806471593065389,0.007159656899398298,0.04189861843827618,0.4791592982942542,0.42208039875382314,0.2898926118458486,0.2817257770673837,0.19075383538624677,0.07708401484924327,0.05776290315642738,0.03619105937126821,0.10175054850242678,0.023611502343694822,0.06285979393206259
0.01968533049172918,0.0770940640079192,0.17652610547234177,0.006903680427074636,0.04144373164889332,0.4825138307384728,0.4243150115592351,0.29031279550064326,0.278313414985681,0.19074754957433168,0.07707833093577283,0.05769405215203481,0.036787133175829365,0.10032597914157479,0.02293804194557381,0.06302209634374244
0.019887106251898604,0.0773864577062429,0.17241042176422458,0.006653760033366195,0.04099851608399037,0.4857965883386905,0.4265159589414136,0.29077730319636275,0.27495375507799363,0.1907156371819356,0.07707746240917245,0.05761212552201484,0.03739035387866687,0.09889196276530127,0.022286942167756386,0.06322022775493119
0.020091966307398856,0.07768944040512281,0.1683043757706638,0.0064100609170230135,0.04056443659119311,0.48900682248600946,0.428681765474029,0.2912913530825046,0.2716484073232406,0.19066015363164626,0.07708111615115903,0.057516499803026463,0.038000236637196746,0.09745071159042094,0.021658869664223316,0.06345665298066168
0.020300423954994554,0.07800291205091611,0.16421217017234582,0.006172736512275168,0.040142891362269124,0.4921439930405493,0.4308111226250941,0.29186016084773875,0.26839852335872594,0.19058343690387428,0.07708905791619897,0.057406592277376337,0.03861624300203257,0.0960044349079735,0.021054457291397138,0.06373376868775585
0.02051298560023697,0.07832677163050064,0.16013788340004476,0.005941929779468702,0.03973520623094051,0.49520753912229015,0.43290292657483476,0.292488983678816,0.2652048560207188,0.19048813624091745,0.07710109049942102,0.057281911201487644,0.039237796121444915,0.09455538104465336,0.02047430093883703,0.06405387714995228
0.020730175175696957,0.07866087072166356,0.15608540976943494,0.00571777509097304,0.03934263201846542,0.49819658535648187,0.43495627193286607,0.29318313034719323,0.2620678152875468,0.1903772005997517,0.07711701978716426,0.05714209826499285,0.039864309903321904,0.0931058648841617,0.019918961125722497,0.06441918170742779
0.02095256029773556,0.07900496870828899,0.15205840665719178,0.00550039997867768,0.03896634490857447,0.5011096592700753,0.43697039941042937,0.29394793998762303,0.258987513769832,0.1902538286257694,0.07713661026425551,0.05698696019957801,0.04049522240054442,0.09165828119703934,0.019388968373641124,0.06483180148852938
0.02118077453885789,0.07935871642339577,0.14806026603503503,0.005289926509361247,0.038607449544112084,0.5039445803350586,0.43894459742328207,0.2947887336004845,0.2559637987869004,0.1901213840782417,0.07715953940875636,0.05681648702109136,0.04113002837395084,0.09021510485875378,0.018884829300804054,0.06529379255025183
0.02141553437947425,0.07972168433926152,0.14409412379383102,0.00508647227968571,0.03826698429746511,0.5066986115166952,0.4408780597650949,0.2957107433995264,0.2529962683620166,0.18998328255916466,0.07718537557269237,0.05663085520257452,0.0417683084562957,0.08877887967622052,0.018407031474774366,0.06580716613747672
0.021657649954590227,0.08009341880971778,0.140162896860391,0.004890151046684188,0.03794592800756009,0.5093687674665442,0.4427697037591844,0.2967190258308981,0.2500842689562676,0.18984285699997475,0.07721359732195844,0.05643041507910543,0.04240975228854745,0.08735219795489581,0.017956046553771792,0.06637390219888255
0.021908029132572636,0.08047350131757575,0.13626932591978194,0.004701073030444131,0.0376452074051882,0.5119521260400196,0.4446179659388295,0.2978183644282558,0.24722687346319108,0.18970322914310228,0.07724364115899332,0.05621566288947788,0.043054173157112,0.08593767311993543,0.017532331750515346,0.06699595883639706
0.022167674880962496,0.08086160006643839,0.13241601138506706,0.004519344941906565,0.03736570444785964,0.5144460801377787,0.4464206370279275,0.2990131686708137,0.24442283892381877,0.18956725019231904,0.07727495289772728,0.05598719896033743,0.0437015120370696,0.08453790768666866,0.017136329812503567,0.06767527850261865
0.022437676255998757,0.08125751079584331,0.12860544063319396,0.004345069799430914,0.037108262823067534,0.5168485140932381,0.4481748317964427,0.30030738057159617,0.24167055182386252,0.18943754849299912,0.07730703067315188,0.05574567453067843,0.04435182953172189,0.08315545871103486,0.016768467847258366,0.06841379175644716
0.022719193675338735,0.08166118430990901,0.12484000710627703,0.0041783466025862,0.03687369292622073,0.5191578932670439,0.4498771220526207,0.30170441401867587,0.23896799136673816,0.18931663945559057,0.07733945616463242,0.05549173442328761,0.04500528495934552,0.08179280259951996,0.016429155414143498,0.06921341924897415
0.02301343938395932,0.0820727390131177,0.12112202210356447,0.004019269930538049,0.03666277466756484,0.5213732604046718,0.45152375557666896,0.3032071472824392,0.23631274917723485,0.18920703213046583,0.07737191195952146,0.05522597524699961,0.04566210272031253,0.08045230275266657,0.016118782344735526,0.07007607236445358
0.023321654196046173,0.08249245768303787,0.11745372021241521,0.0038679295258693524,0.03647625752578501,0.5234941374001668,0.4531108765576747,0.304817955777976,0.23370210998507462,0.18911130697449247,0.07740418386819634,0.05494894239709603,0.046322527208954564,0.07913618854979922,0.015837716735359435,0.07100365262591414
0.023645082240530253,0.08292076870320893,0.11383725936296332,0.0037244099135485165,0.036314857373636655,0.5255203361693768,0.4546347154436745,0.3065387520768421,0.23113316202260004,0.18903216107989343,0.0774361479529973,0.054661165973596076,0.04698677687519439,0.0778465545469365,0.015586303477347834,0.07199804964391504
0.023984949287140088,0.08335821294646632,0.11027471646451313,0.003588790090138359,0.03617924977944751,0.5274516871980836,0.4560917389570593,0.3083710134850627,0.22860290784630816,0.18897241970348785,0.07746774298130589,0.054363211588344444,0.04765502467806199,0.0765853775765716,0.015364863557948211,0.07306113709547768
0.0243424548503273,0.08380539835803731,0.10676807951779686,0.0034611433014691178,0.03607006055941524,0.529287706996123,0.45747875283509,0.3103157948105949,0.2261083621808897,0.18893501551278571,0.07749892989935364,0.05405572525351373,0.04832742330673201,0.07535453973482051,0.015173694190339725,0.0741947660175534
0.0247187824152486,0.08426294496935295,0.10331923701877095,0.0033415369093079874,0.03598785782435233,0.5310272931100211,0.4587929519550506,0.312373729624487,0.223646629046752,0.1889229393644993,0.0775296407063108,0.053739465468682864,0.049004159408459126,0.07415584829696728,0.015013069635630571,0.07540075462064447
0.02511511966660373,0.08473142455738356,0.09992996539309189,0.0032300323307074726,0.03593315240577093,0.5326686228175639,0.4600319147536052,0.3145450245501913,0.22121495129080346,0.18893916843793074,0.07755972707075892,0.05341532118468218,0.04968551061031552,0.07299105030530785,0.014883242389618977,0.07668087388982285
0.025532678807610516,0.08521130801630167,0.09660191513493928,0.003126685019543698,0.03590640911599639,0.5342093454328649,0.46119354112911065,0.3168294517621155,0.21881072714758132,0.1889865789846079,0.07758893448206348,0.0530843153423919,0.050371893690056006,0.07186184186299859,0.014784444251435571,0.07803682843928583
0.02597271345768512,0.08570294481866769,0.09333659627214327,0.0030315444500485515,0.03590806408339627,0.5356469466248932,0.46227593523956667,0.3192263447569188,0.21643149049534266,0.18906785180192673,0.07761692043609732,0.052747594701073285,0.05106390025949298,0.07076987235729366,0.014716886696924003,0.07947023240302763
0.026436531631627912,0.08620658532243097,0.090135363869858,0.0029446541103919813,0.03593854249970739,0.5369791183970472,0.46327723673481236,0.3217346015074122,0.2140748538646321,0.18918538788236475,0.07764330236990918,0.05240640760640529,0.05176231706420532,0.06971674401431326,0.014680759967324897,0.08098258354535408
0.026925504459819952,0.08672242630255786,0.08699940666782037,0.002866051637957468,0.0359982742138591,0.5382040656067859,0.4641954059790871,0.324352697394955,0.21173841580043606,0.18934126674266274,0.07766770871307933,0.0520620721316388,0.05246812902702969,0.06870400735222806,0.014676231003288142,0.08257524663974705
0.027441070456478294,0.08725065545543495,0.08392974583520918,0.002795769234294287,0.03608770607601764,0.539320728809459,0.4650279798828341,0.3270787080681904,0.20941964003726052,0.1895372615138463,0.07768982007273077,0.05171593759643067,0.05318250440046503,0.06773315324596983,0.01470344232740656,0.08424945740530194
0.027984735279632588,0.08779148650213253,0.08092724728406654,0.002733834332752619,0.03620731021356199,0.5403289077240242,0.4657718649598711,0.32991033993188185,0.2071157425541064,0.18977488069181966,0.07770939711057796,0.0513693427849266,0.053906762743926154,0.06680560243820437,0.01476251483491198,0.08600634486556573
0.02855806705215922,0.08834518427424023,0.07799264146752519,0.0026802704114321516,0.03635758775989805,0.5412292754263075,0.466423285684163,0.33284496370937394,0.204823659968999,0.19005539993367868,0.07772629333098763,0.051023577277474044,0.05464232778366854,0.06592269342107235,0.014853555169780397,0.08784696044074218
0.029162687429024507,0.08891207984031589,0.07512654288769097,0.0026350978939446447,0.03653906790731498,0.5420232801232729,0.4669779368861878,0.33587964478958704,0.20254013865751755,0.19037987258503844,0.07774045199550196,0.05067985839399171,0.05539066841846414,0.06508566966322385,0.014976665902913586,0.08977230527826718
0.02980025870354268,0.0894925763206899,0.0723294665791396,0.0025983351043009652,0.03675230247575876,0.542712938589416,0.4674312525805259,0.33901116311134605,0.2002618969927606,0.190749120627459,0.07775188743690914,0.050339331958688255,0.05615323812567399,0.0642956671590853,0.015131956611968745,0.09178335226174114
0.030472467346910465,0.09008714649913886,0.06960184126729078,0.0025699992294346457,0.036997856455861663,0.5433005325259553,0.4677786838653664,0.3422360152751608,0.19798579350334977,0.19116370947963046,0.07776065208240486,0.05000308840702924,0.056931437277166555,0.06355370415500568,0.01531955459966384,0.09388106042365128
0.031181004472396405,0.09069632363882288,0.06694401900089651,0.0025501072335179322,0.037276295187973235,0.5437882256856182,0.4680159435688915,0.3455503924020854,0.19570897281432365,0.19162391146774366,0.07776679143298844,0.04967217862841478,0.05772661872120969,0.06286067632393517,0.015539614107749568,0.09606637976369474
0.031927543993989733,0.09132068702897476,0.06435628118272009,0.002538676663824796,0.03758816898056889,0.5441776759221852,0.4681392052519523,0.34895012887589216,0.19342898112757362,0.19212966741447693,0.07777029321547498,0.04934762164672107,0.05854012627010525,0.06221735845402098,0.01579232286323478,0.0983402449804659
0.03271372252062339,0.09196084372897112,0.061838841068773596,0.0025357262885127236,0.037933996055154295,0.544469827389723,0.46814524575457517,0.3524306193324822,0.19114384477645602,0.19268056292367058,0.07777104824560972,0.0490304034278901,0.05937333842783,0.06162440878981455,0.016077904904739877,0.10070355734781876
0.033541130457683206,0.09261740775956517,0.05939184296729124,0.0025412765119524955,0.038314245701802675,0.5446650228264146,0.4680315226818355,0.3559867211342639,0.18885210754974743,0.1932758285747722,0.07776884559880337,0.04872146813745342,0.06022770054932735,0.0610823715044544,0.01639661888026859,0.10315715486519031
0.03441131991286901,0.09329097765964944,0.05701535853403386,0.002555349522460916,0.038729326294446316,0.5447633417960492,0.46779618096284126,0.35961270217338603,0.18655282486224486,0.19391435170822582,0.07776340474805842,0.04842170380658777,0.0611047412211405,0.06059167607581528,0.016748751365669407,0.10570177180898001
0.0353258229647612,0.093982112938777,0.05470938071792646,0.0025779691396221605,0.0391795831921667,0.5447649697868299,0.46743798575542317,0.3633022907181358,0.18424551528807762,0.19459468000489458,0.07775442319477331,0.0481319264223449,0.06200607256173899,0.060152635486975976,0.01713460519101611,0.10833799548402473
0.03628617091501957,0.09469130957483593,0.05247381604546133,0.0026091603428828316,0.039665305814897044,0.5446704955244862,0.4669561823662921,0.3670488129584258,0.18193007231853153,0.19531501178564423,0.07774161913138593,0.04785286999060288,0.06293337554801723,0.059765447193396735,0.017554483991176744,0.11106624084571776
0.03729391078049443,0.09541897439193167,0.0503084773589202,0.00264894847884374,0.040186737953102195,0.5444811086503939,0.46635028736725403,0.3708453628917918,0.17960664133664161,0.19607318950625208,0.07772476165462329,0.04758518784503315,0.0638883727259085,0.0594301992082583,0.01800867826846891,0.11388675909785818
0.03835061811328659,0.09616539795038541,0.04821308186481156,0.0026973581607018563,0.040744086747562754,0.5441986857828075,0.4656198185663488,0.3746849689465292,0.17727546862265492,0.19686671995640373,0.07770368652578168,0.04732946116981922,0.06487279163664444,0.05914687948197927,0.018497461962064008,0.11679967041950445
0.03945790533310401,0.09693072717337503,0.04618725778369285,0.002754411888647963,0.04133752924283163,0.5438257604070061,0.46476398874394553,0.378560741539762,0.17493674113925178,0.19769282683255787,0.07767829641173686,0.04708620628437548,0.0658883228975473,0.05891538548169502,0.019021103061810173,0.11980499926223992
0.04061742491615386,0.09771494501202228,0.04423055653218743,0.002820128648859202,0.04196721669418627,0.5433653798549337,0.4637814537307619,0.382465988874285,0.1725904701184197,0.19854852214155477,0.07764854557047005,0.04685587596269604,0.06693658007850017,0.058735532340905734,0.019579881668011098,0.1229027002996039
0.041830867010981376,0.09851786861128232,0.042342464990555155,0.0028945232070651827,0.04263327697404163,0.5428208603308877,0.46267026139943657,0.3863942889630554,0.1702364837107447,0.1994306816020776,0.07761440999932767,0.04663885416807867,0.0680190743590647,0.05860705882568703,0.020174107375839478,0.12609267117458917
0.04309995133846676,0.09933916906224732,0.04052241524369142,0.0029776066348412653,0.043335815533807776,0.5421954580004955,0.461428050580363,0.39033950748308543,0.16787453159893925,0.20033611415627003,0.0775758450628575,0.04643544798297913,0.06913721213278104,0.05852963056039628,0.020804132534091024,0.1293747501350961
0.04442641356359667,0.1001784038229774,0.03876979132216435,0.0030693877112548743,0.0440749154180399,0.5414920066201453,0.4600523829790796,0.394295753642904,0.16550443564204453,0.2012616171950822,0.07753273789847918,0.046245886236926506,0.07029230678662303,0.05850284017267474,0.021470360273753018,0.13274869782306456
0.045811986671318417,0.10103505255085715,0.037083932913905736,0.003169874515790537,0.044850636793827094,0.5407126540949269,0.4585410748210806,0.39825726976778275,0.16312622779734828,0.20220400960616866,0.07748487453748076,0.04607033173534759,0.07148558900032936,0.0585262042251981,0.022173246645015667,0.13621416372132808
0.04725837819959804,0.10190855285769786,0.03546413620035408,0.003279075896064953,0.04566301635204857,0.5398588476551339,0.45689247648499337,0.4022182546315596,0.16074025558045993,0.20316013612299688,0.07743194319984009,0.045908903313084184,0.0727182078599664,0.05859915697853006,0.022913296704133647,0.13977063895181982
0.04876724552626891,0.10279833461042141,0.033909652130662146,0.0033970027197859102,0.0465120667684897,0.5389315610649167,0.4551056851965926,0.4061726337761988,0.15834725094774188,0.2041268386137341,0.07737357182232953,0.04576170000365911,0.07399122230879925,0.05872104116559726,0.02369105490338648,0.1434174058383291
0.05034017572123411,0.10370385121497519,0.03241968257653331,0.003523668834116555,0.04739777619961569,0.5379316037113269,0.4531806791812231,0.41011384681883883,0.15594836099591838,0.20510089271852588,0.07730937750216617,0.04562882327371881,0.07530558484194633,0.05889109783720346,0.024507090607932318,0.14715351093418655
0.05197867912302786,0.10462460622695081,0.03099337555495706,0.0036590916596991193,0.0483201075554974,0.5368598761457898,0.4511183658303915,0.41403478786054826,0.15354514153738386,0.20607891276947546,0.07723901003263661,0.04551039544798841,0.07666212344352828,0.05910846138684702,0.025361979947986658,0.15097778060540432
0.0536841984603407,0.10556017363654502,0.029629822615762438,0.0038032923543122165,0.04927899707375643,0.5357175260752817,0.448920541208647,0.41792796661712656,0.15113951719385102,0.20705725261331615,0.07716218323593575,0.04540657269361966,0.07806153313218289,0.059372165084414695,0.026256285811176068,0.15488886507034927
0.055458125178581855,0.10651021028281207,0.028328061845144185,0.003956295493126506,0.05027435155187593,0.534505994930748,0.44658976331940303,0.4217857996808316,0.14873371389527693,0.20803196889532832,0.07707869197777427,0.045317551285927085,0.0795043833949849,0.059681155227602485,0.027190540267913753,0.1588852852975014
0.057301814612401046,0.10747445906514541,0.027087086355849884,0.004118128229034333,0.05130604351997614,0.533226953673461,0.44412914661304076,0.42560090787084565,0.14633017132092307,0.2089988899565646,0.0769884136703324,0.04524356632281657,0.08099113457056237,0.06003430854454922,0.02816523629341043,0.1629654709447625
0.05921659715869972,0.10845274193610464,0.025905854768217645,0.004288818917311616,0.0523739036826857,0.531882135014926,0.4415420898687951,0.42936636523929667,0.14393144366939234,0.2099537528953658,0.07689129406986649,0.04518488256888796,0.08252215299935296,0.06043044994299159,0.029180830934026125,0.16712778603997905
0.06120378496774455,0.1094449420677368,0.024783300791517512,0.0044683952131470825,0.05347771013707692,0.5304730769716606,0.4388319534215904,0.43307588081989584,0.14154009708303386,0.2108923473811751,0.07678731819350999,0.045141777659343414,0.08409772069794741,0.06086836959446752,0.030237753353258415,0.17137054026034448
0.06326467391375919,0.11045097506105259,0.023718340919127102,0.00465688167704711,0.054617174164544945,0.5290008242562589,0.43600173583525215,0.43672389893887575,0.13915861109651786,0.21181063855035637,0.0766764681534247,0.04511451843791984,0.0857180386685681,0.061346838452024155,0.03133641040440362,0.17569198465965033
0.06540054082773702,0.11147074958303262,0.02270987995304134,0.004854297277846308,0.05579192443852843,0.5274657113868969,0.43305387625162167,0.44030561001921836,0.1367892951540205,0.2127048600255388,0.07655867353678145,0.04510333385925041,0.0873832235797936,0.061864621197570954,0.03247718730413449,0.1800902916999693
0.0676126361636318,0.11250411832978995,0.02175681418960157,0.005060653931136706,0.05700149619755689,0.5258673680225271,0.4299902955593914,0.44381687063289144,0.13443424081329655,0.2135715702002599,0.07643377166675294,0.045108394956040514,0.0890932981317973,0.062420485564451525,0.033660443412339966,0.18456352038332524
0.06990217241914877,0.11355082255147134,0.020858032220770463,0.0052759570331109016,0.05824533247182864,0.5242049449086228,0.4268126326806113,0.4472540383095888,0.13209532311258013,0.21440766737000697,0.07630150213272173,0.045129814879519586,0.09084817590619385,0.06301320700497465,0.03488650350020566,0.18910956807773038
0.07227030874340946,0.11461044432253839,0.020012413427010094,0.005500207551457554,0.05952279673657059,0.5224774203035225,0.423522534144677,0.4506137325280316,0.12977423602951924,0.21521036182358752,0.0761615409351467,0.04516767002029938,0.0926476418687316,0.06364156778543326,0.03615564599925224,0.1937261112405153
0.07471813223925886,0.11568239278904668,0.019218824351400987,0.005733404563548858,0.060833190328235934,0.5206838675901801,0.4201219068281636,0.45389253778301814,0.12747253482825988,0.21597710545258259,0.07601355322272943,0.04522203008952727,0.09449133100112135,0.0643043497954269,0.03746809270819065,0.19841054233501593
0.07724663651469865,0.11676593611772203,0.018476113243592742,0.005975547628423365,0.062175769692577154,0.5188236418031066,0.41661311080337593,0.4570866885037112,0.12519167246584145,0.2167054816933891,0.0758572429778163,0.04529298613125167,0.0963787111253728,0.06500032064688091,0.03882400602271184,0.20315992366558835
0.0798566989279461,0.11786026048795878,0.01778310385466562,0.006226638791053318,0.06354976180640404,0.5168964728863176,0.4129990884226076,0.46019184055902107,0.12293303018826128,0.21739306066229022,0.07569239157388495,0.04538067236880535,0.0983090772435817,0.06572821299611396,0.040223495046506644,0.207970981558496
0.08254906152042989,0.11896453262010667,0.017138591602310804,0.006486684081395727,0.0649543770957448,0.514902459793147,0.40928342923634353,0.4632030517113084,0.12069794466699577,0.21803724386276713,0.07551888318171944,0.045485280560841536,0.1002815578937846,0.06648669742836909,0.041666625703906356,0.2128401403873831
0.08532432333749108,0.12007795675971351,0.016541345593253154,0.0067556943863848334,0.06638881926589682,0.5128419660398598,0.4054703732473332,0.46611497215899556,0.1184877330392258,0.2186351679786046,0.07533671599690579,0.045607066036242844,0.10229512642062134,0.06727435414865969,0.0431534296985456,0.21776357402105392
0.0881829463308528,0.12119982368134659,0.015990116341299317,0.007033685595196703,0.06785229150889219,0.5107154236934286,0.40156475728622326,0.46892212306082653,0.11630371608935217,0.21918373578565997,0.07514599927417263,0.045746345121762844,0.10434861094366166,0.06808965870706433,0.04468391005402489,0.2227372567516589
0.09112526850948678,0.12232954943710042,0.015483645710486552,0.007320677945855337,0.06934399857273793,0.5085230586602643,0.3975719109939479,0.47161916005599247,0.11414723879160796,0.21967975850885502,0.07494693707096352,0.045903484230784386,0.10644070138208932,0.06893099399395,0.04625804224644554,0.22775700811589852
0.09415151755678879,0.12346670181503874,0.01502067624720541,0.007616694533335513,0.0708631441879303,0.5062645911465952,0.3934975100845294,0.4742010902994898,0.11201968671370338,0.22012013562763433,0.07473980033140215,0.046078881405550345,0.10856995382202578,0.06979668190939473,0.047875770174475134,0.2328185301599709
0.09726182246799422,0.12461101279930677,0.014599958860648715,0.00792175897431074,0.07240892337646265,0.5039390545141763,0.3893473953126313,0.47666343773434533,0.10992249646655723,0.22050202025163543,0.07452488943102618,0.046272941562931325,0.11073479283870204,0.07068502010181632,0.04953699651478675,0.23791743596281517
0.10045622257248282,0.12576237574241042,0.014220258421468318,0.00823589225999047,0.07398050924081137,0.5015448649302807,0.3851273659448428,0.47900235327412793,0.10785715849183466,0.22082295180349884,0.07430248954995489,0.046486047057448805,0.11293351260207808,0.07159431629330129,0.0512415673684235,0.24304926845844985
0.10373467335823454,0.12692082647216985,0.013880356928683146,0.00855910886441821,0.07557703396404257,0.49908010154432014,0.38084295659014733,0.4812146680347764,0.10582521094506778,0.22108094749646234,0.07407282374915439,0.0467185287972028,0.1151642776792337,0.07252291784040515,0.052989254455737815,0.24820950879118725
0.10709704859545638,0.12808650815562406,0.013579054000537676,0.008891412639531894,0.07719756395797454,0.49654284629466733,0.3764992305937926,0.48329788883607794,0.10382822414372062,0.22127454622718337,0.07383601746367102,0.04697065029892869,0.11742512439307763,0.07346923485269563,0.05477974504567638,0.25339357360776676
0.11054313835967013,0.12925962041733455,0.013315164571691112,0.009232794111667057,0.07884107071758518,0.49393148304736395,0.37210067482762954,0.4852501360393978,0.10186777587393236,0.2214028010788647,0.07359209306905237,0.04724261365371356,0.11971396341044166,0.0744317554835502,0.05661264851396739,0.25859680085043896
0.11407264267557694,0.13044035393997638,0.013087513821335422,0.009583230771928715,0.0805064056275416,0.49124492336253284,0.3676512587418107,0.48707002457030985,0.099945418663049,0.22146521950378628,0.07334099758335706,0.04753458050737841,0.1220285839298871,0.07540905236293766,0.05848751628761516,0.2638144237735636
0.11768516063505019,0.13162881271473612,0.012894929509481502,0.00994269002308832,0.08219229348320999,0.48848274590991986,0.363154609858148,0.488756489867559,0.0980626408287046,0.22146165328159675,0.07308264618749184,0.047846694628723756,0.12436665944700982,0.07639977953625762,0.060403866005041364,0.2690415330642054
0.1213801749787058,0.1328249390842489,0.012736232793566274,0.010311133148500273,0.08389735105528727,0.4856452420950594,0.3586142126733008,0.490308561665821,0.0962208238144156,0.2213921433756271,0.07281696475694485,0.04817909930368145,0.1267257546280729,0.07740265968479045,0.06236120467015408,0.27427302709732826
0.12515703226400457,0.13402848072269408,0.01261023122268149,0.010688519198963657,0.08562012065318697,0.48273336630884195,0.3540335850109098,0.49172509008661525,0.09442120422720701,0.22125672862318238,0.07254392568281173,0.04853194815202597,0.12910333236263274,0.0784164618113766,0.06435904874729981,0.27950355048832076
0.1290149188677626,0.1352390254037287,0.012515718936998831,0.011074808425042193,0.08735910597215213,0.4797485949925731,0.3494164219379009,0.49300445680150207,0.09266485858332328,0.22105526082141697,0.0722635757259278,0.04890540915580772,0.13149675963539909,0.07943996996063041,0.0663969396233872,0.28472742121453537
0.13295283318229814,0.13645607939938015,0.01245148496034779,0.011469965063050421,0.08911280463577963,0.47669270405829334,0.34476670311983065,0.4941443802718309,0.09095272003435617,0.22078732649051694,0.07197605495354964,0.049299662188047606,0.13390331049861018,0.08047194389093944,0.06847445313616284,0.28993854905938365
0.1369695559259962,0.13767915110675974,0.012416325246744095,0.011873959299811073,0.09087973498896472,0.47356747880460426,0.3400887605482579,0.49514194187219523,0.08928561247296184,0.2204523369746369,0.0716816061893283,0.04971489075657249,0.13632016417818563,0.08151107435402367,0.07059120223713548,0.2951303635932721
0.14106362576812453,0.1389078240381262,0.012409054118640498,0.012286768266556843,0.09265845469538454,0.47037439079750304,0.33538730481862383,0.495993830178057,0.08766428285289214,0.2200497210029944,0.07138057484609603,0.050151268982694966,0.13874439624650964,0.08255594431935863,0.07274683229290532,0.3002957898590072
0.14523333069819477,0.14014181522884467,0.012428513258805209,0.012708375945240517,0.09444756886935975,0.46711434304615757,0.3306674095879447,0.4966966798000313,0.08608942521483437,0.21957912006894242,0.07107339946839819,0.05060894499157039,0.14117296087382927,0.08360501735168784,0.07494100899453705,0.3054272929156901
0.1494767176987022,0.14138101575328718,0.012473577465980186,0.013138771909777632,0.09624572584603204,0.46378762697995474,0.3259344554751113,0.49724740198889117,0.08456169640206275,0.21904054583232083,0.07076059373804881,0.05108802190161086,0.14360266245211065,0.08465666293660284,0.07717339930487398,0.3105169691922925
0.15379161263990934,0.14262551089414044,0.01254315655564298,0.013577948868751277,0.09805159927397672,0.4603941218884126,0.32119403640921695,0.4976434679677811,0.08308172405687339,0.2184344902679247,0.0704427210452758,0.051588537836843834,0.14603011619211234,0.08570920399082384,0.07944364629294347,0.31555665354925416
0.1581756422963415,0.14387557853487776,0.012636193027556718,0.01402589902299958,0.09986385599095843,0.45693360869638905,0.3164518331656805,0.4978831274057259,0.0816501079179647,0.21776198237894356,0.0701203629708017,0.052110448908774684,0.14845170774453928,0.08676096768944898,0.08175133904962235,0.3205380301483231
0.16262625575849451,0.14513166547374579,0.012751655416169131,0.014482609299337859,0.10168111008782428,0.45340606742016,0.3117134604172292,0.4979655472344526,0.08026741565261054,0.21702458882519587,0.06979408315354156,0.05265362244575665,0.15086357930579708,0.0878103323510962,0.08409597912070488,0.32545274372466887
0.1671407445972693,0.14639434251778632,0.012888527565292855,0.01494805556853906,0.10350187002560207,0.44981191200615034,0.3069842949352057,0.4978908603320803,0.07893417446197594,0.21622435950815957,0.06946438804807946,0.05321784369709459,0.1532616621424563,0.08885576849588533,0.08647694753455344,0.3302925068222654
0.17171626113047117,0.147664240332428,0.013045795357051223,0.015422196189299046,0.10532450152450083,0.44615215279928566,0.30226931555006015,0.49766011911125296,0.07765085953867479,0.21536372272393642,0.06913169113426582,0.05380283028504814,0.15564174353427146,0.08989587229820303,0.08889348254007108,0.33504919750207374
0.17634983411765218,0.1489419690258495,0.013222436058679324,0.015904966339018566,0.1071472320881951,0.4424284810032624,0.29757302957181525,0.49727515522175403,0.07641788020368774,0.21444533767372792,0.06879629706070954,0.05440824737594265,0.15799954528932617,0.0909293898146916,0.09134467711446642,0.33971494109047345
0.18103838116426024,0.15022802724664155,0.013417417416229599,0.016396275826689427,0.10896819644338407,0.4386432735765076,0.29289953426310367,0.4967383527664002,0.07523556428375353,0.21347191468211818,0.06845841619687178,0.05503372115578929,0.16033080280333842,0.09195523058322186,0.09382949267604537,0.3442821688491202
0.18577871704235505,0.15152272194179886,0.013629707939374125,0.01689601158439875,0.11078549803677727,0.4347995208732219,0.2882526636506359,0.4960523479914247,0.07410414107941377,0.2124460323945401,0.06811819841799648,0.055678850214673954,0.1626313396998911,0.09297246946712227,0.09634677756806187,0.34874364616563425
0.19056755702948394,0.1528261391283135,0.013858292343565136,0.01740404290090848,0.11259726573754102,0.4309006828735431,0.2836361406341102,0.49521967281142426,0.07302372415243007,0.2113700231215249,0.06777576926475438,0.05634321428987739,0.16489713272580903,0.09398033596465258,0.09889528326685798,0.3530924631194936
0.19540151423054233,0.1541381844008875,0.014102185972781865,0.0179202269655839,0.11440169719727222,0.4269504829796254,0.27905369996245644,0.49424240222963683,0.07199429892399098,0.21024599008612796,0.06743126209377781,0.057026379655847996,0.16712436156650465,0.09497819061489318,0.10147367694184736,0.3573219811662733
0.20027708968735436,0.15545866268565517,0.014360445704563697,0.018444413789553235,0.11619708480691505,0.4229526510351386,0.2745091756182176,0.49312195486087224,0.0710157226580665,0.20907593209303224,0.06708484534042841,0.0577279003343551,0.16930943861130351,0.09596548859848511,0.10408055065167274,0.3614257312526091
0.20519065391505872,0.1567873581789104,0.014632176463153066,0.018976450271501053,0.1179818213670801,0.41891063974210546,0.2700065497466143,0.49185916661079954,0.07008773843341425,0.2078618943463255,0.06673674421907266,0.05844731428374478,0.17144901442811783,0.09694173113842079,0.10671442773565253,0.3653972609107445
0.21013841836410982,0.1581240996286213,0.014916532782056199,0.01951618321164834,0.11975438403992088,0.4148273912592483,0.26554996245682233,0.49045456998873027,0.06920999608696073,0.20660609236602562,0.06638725632332095,0.059184133851172764,0.17353995576359119,0.09790640583100946,0.10937376712888296,0.36922993070825955
0.21511639523794923,0.15946880792064638,0.015212715220266496,0.020063461124716186,0.12151329672237948,0.41070527848909955,0.26114368411672817,0.48890871848663836,0.06838207284120769,0.20531099470673794,0.06603676073637728,0.059937830050604816,0.17557929421514124,0.09885892248733236,0.11205696637304192,0.37291669940821487
0.22012034415876275,0.16082152384063778,0.015519961816570381,0.020618134758202192,0.12325707251386096,0.40654626157419854,0.2567920540021129,0.4872224667284943,0.06760349064673023,0.20397936214324172,0.06568572041729112,0.060707810648366334,0.17756414526272646,0.09979856680497576,0.11476236400834561,0.3764500184156063
0.2251457092999604,0.16218241488575713,0.015837535129925237,0.02118005628227825,0.1249841409982616,0.40235215352712,0.2524993911752985,0.4853971848129808,0.06687372899678537,0.20261424385257853,0.06533467778727368,0.06149339674944008,0.1794915990334716,0.10072450030253208,0.1174882418277423,0.37982193645728535
0.23018756884764643,0.1635517610420577,0.01616470572653379,0.021749077177530586,0.12669277993661052,0.3981248751273471,0.24826988509277503,0.4834349005911018,0.06619223204927951,0.20121893374073163,0.06498424359550604,0.06229381181301553,0.18135860007092983,0.1016358092598328,0.12023282718071038,0.3830243671245192
0.23524063210792948,0.16492992046424895,0.01650073553837474,0.02232504490202057,0.12838109048425045,0.3938666547873076,0.24410747527096685,0.48133836706383015,0.06555840910768045,0.19979689228193753,0.06463507929259904,0.06310819378627272,0.18316187116551355,0.10253157712267935,0.12299429517087111,0.3860494040573401
0.24029929730081226,0.16631727693622775,0.016844869338342592,0.02290779846579155,0.13004703646580548,0.3895801639792447,0.24001574488541627,0.47911105521721614,0.06497162785701849,0.1983516409561705,0.06428787328420547,0.06393562362591625,0.1848979389741847,0.10341095721092758,0.12577077024433203,0.3888896209437842
0.24535774847846395,0.16771417180152454,0.017196340030848377,0.02349716307622913,0.13168852153314525,0.3852685825497066,0.23599787670965394,0.47675707538292533,0.06443120019860875,0.19688663752626526,0.06394331158705574,0.06477515684088071,0.18656325401868912,0.10427323716256215,0.1285603263580244,0.39153833299227336
0.2504100662768657,0.16912082369231876,0.017554383065924484,0.024092944040305025,0.13330346774006302,0.3809355924088515,0.232056693526967,0.47428103262753635,0.06393636175723776,0.19540515067449252,0.06360204358122193,0.06562585140655793,0.18815434796561514,0.10511789184928351,0.1313609846844753,0.39398980132987343
0.2554503409543905,0.1705372467321904,0.017918251756775715,0.024694920119782155,0.1348898803073545,0.37658530238948845,0.22819474087223307,0.47168782377709617,0.06348625201089698,0.1939101774579366,0.06326464760363025,0.06648678959412142,0.18966798556018258,0.10594462185459297,0.134170707672823,0.39623936380275776
0.2604727808903447,0.1719631961443922,0.018287229843608383,0.025302836534079554,0.13644589411298808,0.37222211121102594,0.2244143592113802,0.46898238553312444,0.06307990968677929,0.19240444526820547,0.0629316107010425,0.06735709171770007,0.19110129477738255,0.10675337517720285,0.1369873882520358,0.3982834790812672
0.2654718084858332,0.1733981708371005,0.018660640591095384,0.025916398127955997,0.13796979838811066,0.367850519131514,0.22071772745337281,0.4661694047851605,0.06271629167281183,0.19089048631229566,0.06260333629521529,0.06823592029090587,0.19245186632943342,0.10754435060663707,0.13980883302631275,0.4001196756658394
0.2704421345809991,0.1748414674107164,0.01903785211653933,0.026535264232689086,0.13946003728326029,0.36347490172934993,0.21710687749816185,0.463253039587351,0.06239430659147911,0.1893707323058569,0.06228017567348628,0.06912247371062528,0.19371781496675577,0.10831798218405293,0.14263273846321545,0.40174640309002524
0.27537880226685424,0.1762922526095829,0.019418278841998104,0.027159047073466464,0.14091518532126862,0.3590992813018542,0.21358368175180817,0.4602367761694063,0.06211284986485812,0.18784759236333928,0.06196246739975444,0.0700159692958703,0.19489779693761014,0.10907490525109452,0.14545665929944082,0.4031627889432699
0.2802771915008458,0.17774963019078874,0.01980137912233302,0.02778731371069559,0.14233389818453465,0.3547271820581599,0.2101498175162198,0.45712351585975675,0.061870834273170944,0.1863235041179119,0.061650573851502015,0.07091561623981878,0.19599098043613208,0.10981590571888962,0.14827796867677448,0.4043683118146591
0.28513297735735393,0.1792126949347182,0.0201866492258493,0.028419589577347647,0.143714840700473,0.35036164926364893,0.20680671373241893,0.45391582421023713,0.061667213748459807,0.18480095716555364,0.06134491107097246,0.07182057971812195,0.19699696871716899,0.11054185525684827,0.15109381506918904,0.40536242284538687
0.28994203709746347,0.18068057179983055,0.020573613945896317,0.02905536202107779,0.1450565965958832,0.34600540589267925,0.20355549164700285,0.4506162074568919,0.06150099855096757,0.18328248951057596,0.06104596998178393,0.07272994269553945,0.19791567858776526,0.11125363600022867,0.1539010948303594,0.406144228930701
0.2947003044550645,0.1821524388696162,0.020961814213839854,0.029694083443846064,0.14635758233800794,0.341661046368624,0.20039692470303155,0.447227347195911,0.06137126055180837,0.18177065908437215,0.060754327425697155,0.073642683250246,0.1987471799681786,0.11195206052852748,0.15669646096360978,0.40671241813170345
0.29940357822412644,0.18362753340115096,0.02135079217685509,0.03033517406338844,0.14761601429480575,0.3373311993479032,0.1973314423059198,0.4437522746534632,0.06127712803165725,0.1802679935690945,0.06047064606235292,0.07455768321553771,0.1994915132840813,0.11263780394590753,0.15947636695876263,0.40706548600080233
0.30404733777414233,0.1851051409373144,0.02174007540805855,0.030978024351572618,0.1488299581469622,0.33301864140873905,0.19435917207124748,0.44019447501025966,0.06121777012867293,0.178776922662223,0.06019566290057794,0.07547376231228829,0.200148539401731,0.1133113774872741,0.16223712802110266,0.40720211558081687
0.30862668123665,0.18658456806394547,0.022129165392222483,0.03162199722882831,0.1499974294569488,0.328726359417698,0.19147999094625873,0.4365579160864436,0.0611923717581296,0.17729969759661524,0.05993016702583814,0.0763897196135273,0.20071790576642062,0.11397315462707262,0.16497498676932776,0.40712154444634235
0.3131364535517265,0.18806509995585302,0.022517536606050943,0.03226643010761533,0.15111649915277076,0.3244575624289845,0.18869356314751012,0.4328470002594019,0.06120010042323121,0.17583831477503534,0.059674967876944464,0.07730437118061215,0.20119915247911366,0.11462342383773513,0.1676861785005014,0.40682385569027735
0.317571493892518,0.1895459443421489,0.0229046464734544,0.032910636877413114,0.15218538455315592,0.32021564663552904,0.18599935881761667,0.4290664434279617,0.06124006954901023,0.17439448265628793,0.059430856130388295,0.07821658037960892,0.2015918873794265,0.11526243811496349,0.17036699282392598,0.40631017826060795
0.32192689652329987,0.1910261639181317,0.02328995005820101,0.033553909905863495,0.1532025203893363,0.3160041190214694,0.18339665342667144,0.4252210897103482,0.06131131170125085,0.17296965565806113,0.059198564221916355,0.0791252792595112,0.2018959528670899,0.11589045169122554,0.17301382813543817,0.40558278859245467
0.32619823792083263,0.19250459993279007,0.023672914090860576,0.03419552209382274,0.154166605140357,0.3118264869271546,0.1808845095131709,0.4213156748953851,0.06141277790776584,0.17156510806739306,0.058978743539470364,0.0800294798602617,0.20211155584134918,0.11650774413434181,0.17562323522398673,0.4046451122878236
0.33038175375859713,0.19397980119413263,0.024053028440109425,0.03483472896646547,0.15507661914649098,0.3076861217582825,0.17846174362686792,0.4173545700610953,0.061543363930104705,0.17018200819392698,0.05877197175277855,0.08092827484773135,0.20223935452438951,0.1171146330376611,0.1781919463081624,0.4035016310609624
0.33447445236686996,0.1954499932909693,0.024429814479725993,0.03547077071066004,0.15593181236954665,0.3035861059720083,0.17612688717314703,0.4133415889930893,0.06170194795000298,0.16882147758113614,0.05857878212132509,0.08182082741080965,0.20228049912073548,0.11771147728033869,0.18071688602040262,0.40215770576518295
0.3384741553918558,0.19691310992175512,0.024802829990778815,0.036102873985132386,0.1567316612780202,0.299529093493907,0.17387816266557246,0.4092799639953174,0.061887425899413345,0.16748463308808256,0.05839969571979797,0.08270635086668765,0.2022366265514798,0.11829867330066296,0.18319516131433405,0.40061933065609184
0.3423794612330052,0.19836686413861038,0.025171670448977966,0.03673025324087407,0.15747579607031453,0.295517251390143,0.17171349625264884,0.4051724976736777,0.0620987395982133,0.1661726107344323,0.05823524559862386,0.08358407887166992,0.20210981256811078,0.11887664695045648,0.18562402798267028,0.3988928368985294
0.34618963203417874,0.19980882598733302,0.025535966757778562,0.037352111202812,0.15816390120698437,0.29155232139543863,0.16963056280593342,0.4010217852097401,0.062334896343875915,0.1648865712402438,0.05808598995744844,0.0844532275024092,0.20190248710453695,0.11944584329250368,0.18800083244332177,0.39698456463151066
0.34990441011347845,0.20123649370249713,0.025895379676278488,0.03796763808906864,0.15879559759536938,0.28763575077606296,0.16762684246544574,0.39683041074198905,0.06259497916407468,0.16362768810429756,0.057952513636186136,0.08531295074406307,0.20161732054644876,0.12000671621212039,0.19032292866300218,0.394900547634884
0.35352377431881604,0.20264735609801943,0.02624959133824136,0.03857600909093734,0.15937033870385034,0.28376882162677786,0.1656996742284858,0.39260108623301104,0.0628781476033212,0.16239711979346957,0.057835418145888065,0.08616229657867447,0.20125708956379929,0.12055971901915283,0.19258757149522734,0.39264631431493835
0.3570476505155473,0.2040389439695271,0.026598294352041606,0.0391763796146652,0.15988737952930052,0.2799527520346326,0.1638463027145798,0.3883367279750344,0.0631836296197061,0.1611959681407864,0.05773530137483972,0.08700018298635928,0.2008245312618844,0.12110529642448362,0.1947918054025314,0.39022689863892507
0.36047563146990386,0.20540886853593207,0.02694117900683373,0.03976787780417442,0.1603458444489014,0.2761887652849129,0.16206391728224392,0.38404046976297845,0.06351070584513693,0.16002522538719996,0.05765272892498863,0.0878254095649809,0.2003222030245708,0.12164387750340235,0.19693240497652303,0.38764702366876513
0.36380683868145003,0.20675484519974696,0.027277919093176107,0.040349593929281655,0.16074485055940146,0.27247812487209067,0.1603496828251062,0.3797156153112758,0.06385868802473063,0.15888571249258757,0.057588202947176814,0.08863669641009886,0.1997523893405732,0.1221758686188806,0.1990059156031375,0.3849113334848317
0.36704001337732217,0.20807470120686525,0.02760815771661116,0.04092056712730305,0.16108363158539513,0.2688221347854088,0.15870076146202888,0.3753655355760135,0.06422689381220786,0.15777801939557082,0.05754214239211198,0.08943273073417925,0.19911709737072586,0.12270164486025094,0.20100877310472426,0.3820245930456767
0.37017375362720495,0.2093663661443543,0.027931497253829766,0.04147977386319157,0.1613616407324385,0.2652221062963697,0.15711432405926135,0.37099351920984325,0.06461462019347841,0.15670247499557644,0.05751488688783465,0.09021221094174305,0.1984181317565814,0.12322153840972526,0.20293744642575393,0.37899183759558813
0.3732067627736016,0.21062784463394837,0.02824749856119194,0.042026126507482386,0.1615786271266087,0.261679294194888,0.1555875502286078,0.3666025864119052,0.06502111761429108,0.15565916831987867,0.05750671955379964,0.0909738855878902,0.19765719758890515,0.12373582238765712,0.20478857133513917,0.37581847159818144
0.3761380528931538,0.21185717105893243,0.028555689676377928,0.04255848628353203,0.16173468215328377,0.25819480700081365,0.15411761528991352,0.3621953029129602,0.06544556642282982,0.15464800715159277,0.05751789353232903,0.09171658589762238,0.19683599455912404,0.12424468910815724,0.20655906408490007,0.3725103193751995
0.3789670940993601,0.21305234669661485,0.028855579140462637,0.04307568594062347,0.16183025385825348,0.25476949701725743,0.15270166279819997,0.357773684668489,0.06588705657422729,0.15366878535304723,0.05754865238963059,0.09243925063389875,0.1959562929340249,0.12474822222306768,0.2082462076936033,0.36907363128585013
0.38169390617129995,0.2142112602067677,0.029146669771334358,0.04357655568087007,0.1618661294499423,0.25140385364172446,0.1513367616906911,0.35333926174282043,0.0663445707843194,0.15272124428813214,0.05759924167504436,0.09314094221689137,0.19501999064321368,0.12524636284811666,0.20984770472450381,0.36551505041803406
0.3843190923812075,0.2153315930354237,0.029428471547907568,0.04405994935399424,0.16184338770605436,0.24809795648933144,0.1500198479135981,0.34889325539689087,0.06681697178339732,0.1518051247561821,0.057669911215688104,0.09382085313581431,0.19402915101262713,0.12573887242442172,0.2113616920672759,0.3618415454449043
0.3868438183491718,0.21641072664133532,0.0297005131871369,0.04452476940049843,0.161763324634117,0.24485152531421192,0.14874766179411458,0.3444367729280083,0.06730299637777,0.15092020759540467,0.0577609084264336,0.09447830188299168,0.19298602090485362,0.12622530348712793,0.21278671520174167,0.35806031561452095
0.38926974113059404,0.2174456996886953,0.02996235192721553,0.04496998883324234,0.16162735698653477,0.24166403079804225,0.147516716959714,0.33997097018204436,0.0678012583502563,0.15006634147964845,0.05787246352906185,0.09511271789934483,0.19189302933430488,0.12670499527175205,0.21412166159709642,0.3541786738751425
0.3915988954645502,0.21843325138162137,0.030213580982443453,0.04539466845465936,0.16143690913694456,0.2385348082416804,0.14632333273761966,0.3354971682326517,0.068310258369124,0.14924345681747406,0.05800476806681018,0.0957236153625745,0.19075276705989383,0.12717709870771965,0.215365655150431,0.35020391397246775
0.3938335451656309,0.21936992646097733,0.030453834121290702,0.04579796753869709,0.1611932954444717,0.23546314935495744,0.14516371804402342,0.3310169180104247,0.06882839827440082,0.14845156505701548,0.05815794946057636,0.09631055607027432,0.1895679482156588,0.12764061716609154,0.21651791576612484,0.34614316705030196
0.3959760080691807,0.22025219565223342,0.030682786847526997,0.04617914638429795,0.16089763177784888,0.23244836671704694,0.1440340714097065,0.3265320096653022,0.069353999308678,0.1476907431148841,0.05833204933022082,0.0968731021507463,0.18834135567358015,0.1280944487056403,0.21757759324109555,0.34200325288733746
0.39802846282355087,0.22107657061445204,0.030900153738599802,0.04653755948316788,0.16055082049511543,0.2294898275960268,0.14293067601443143,0.32204442671996897,0.0698853245743554,0.14696110310894903,0.058527017513195445,0.09741075984301897,0.18707577246917123,0.12853742485604297,0.21854361522542223,0.3377905389740251
0.39999274527628503,0.22183970770736666,0.031105681615635046,0.04687263853858382,0.16015361405023618,0.22658695541544907,0.14184998201991666,0.31755624842532043,0.07042060529007657,0.14626274811034035,0.05874272559463463,0.09792292369085447,0.1857739021796624,0.12896834493000728,0.21941463181622484,0.3335108459873947
0.40187015957465233,0.22253849574265258,0.03129913838294894,0.04718386520799086,0.1597067138509607,0.2237391988480819,0.14078867118761038,0.31306950694075664,0.07095806962892243,0.14559571524986517,0.058978990124448065,0.09840884742361643,0.18443828155951492,0.1293860051534133,0.22018910066808486,0.32916944512598517
0.4036613693466745,0.22317012318177393,0.031480297577617784,0.047470734185068655,0.15921086385138367,0.22094597023618406,0.13974369981940427,0.3085860112330227,0.07149597222485322,0.1449599082004946,0.05923559450105741,0.09886766269012476,0.18307119810821423,0.12978922217989042,0.22086545531717122,0.324771144200459
0.4053664229126455,0.22373212078066648,0.03164891890547865,0.047732713203774285,0.15866692596695803,0.21820655671417785,0.13871231742232235,0.3041071825581419,0.07203262192380505,0.14435503168983685,0.05951230553704532,0.09929843378758144,0.18167464538930328,0.13017685079134883,0.22144227740324726,0.3203204109391345
0.40698488217235657,0.2242223764520394,0.031804728442478815,0.047969219458751065,0.15807593555910365,0.21552001695055167,0.13769206002218362,0.29963399503230453,0.07256640509831136,0.14378056131040018,0.0598088840369575,0.09970022170079117,0.18025034219425953,0.13054779576678352,0.22191844090965787,0.31582149169017054
0.40851598184076504,0.22463912009590015,0.031947409091240477,0.04817963057546093,0.15743913619676653,0.21288510403772276,0.13668071857982414,0.29516707186761915,0.07309580187276182,0.14323577168967916,0.06012508917630537,0.10007214343453694,0.17879979939428425,0.13090101802415538,0.22229322049840167,0.3112785137422633
0.40995877876345815,0.22498087730312027,0.032076609577807495,0.04836332448341816,0.15675799377148908,0.2103002677235495,0.13567628435675508,0.29070687141997154,0.07361939291797964,0.14271980301247,0.060460676929954986,0.10041342275696864,0.17732439822814522,0.1312355352049848,0.22256635793512644,0.30669556995075387
0.4113122830622722,0.2252463921217592,0.032191966973907624,0.04851972782017712,0.15603419081505226,0.2077637435961971,0.13467687422881539,0.2862538713073349,0.07413585503350828,0.1422317315068036,0.06081539321993004,0.10072343020813959,0.1758254606062414,0.13155041688131855,0.22273808292021816,0.3020767846864064
0.4125755692668046,0.22543452044070303,0.03229313227457525,0.048648359521478134,0.15526960255242242,0.20527368180863423,0.13368063979336112,0.28180871460725965,0.07464394448260381,0.14177062822813843,0.061188962796755966,0.10100171081358557,0.1743043071889112,0.13184477452451548,0.22280908722558312,0.2974263604148099
0.4137478655866644,0.22554409693280883,0.0323797936838471,0.04874886500408704,0.15446625682427678,0.20282826954648764,0.1326856675645222,0.2773723112234706,0.07514246790120986,0.14133560194785588,0.06158107509773369,0.10124799862874034,0.1727623020670311,0.13211774629219916,0.22278045371040528,0.2927486044842569
0.41482861937306476,0.22557378895463373,0.03245169582981986,0.04882103882347931,0.1536262805277398,0.20042582941738404,0.1316898950738383,0.27294589070636005,0.07563024148691745,0.14092582331795675,0.0619913684133268,0.10146221795895093,0.17120088330010183,0.13236847657600528,0.22265354436470988,0.2880479359720101
0.4158175366912011,0.22552198472592835,0.032508653589559525,0.048864834536514884,0.15275183563084713,0.19806488736465763,0.13069108690224146,0.2685310060908211,0.0761060412017578,0.14054052854383575,0.06241941362787874,0.10164447178005548,0.1696215789175645,0.1325960901278002,0.22242985382151587,0.28332887273637114
0.41671459386701065,0.22538678338411774,0.03255055947422682,0.048880361410483096,0.15184504808279492,0.19574420540768114,0.12968688863318867,0.264129491408926,0.0765685569646899,0.140179002049188,0.06286469858900175,0.10179501846270246,0.16802600826905417,0.13279966047313438,0.22211083662532458,0.27859599916522904
0.4175200189686921,0.225166101520072,0.03257738389147933,0.04886786850703464,0.1509079330302028,0.19346277661265834,0.12867492441044398,0.2597433782199577,0.077016377263922,0.13984053897705914,0.06332661382466945,0.1019142383360677,0.1664158688462692,0.13297817226043115,0.22169773986935157,0.27385391551483984
0.4182342415055408,0.22485783898857334,0.032589168038627554,0.048827717459231854,0.14994232297990992,0.19121978207471085,0.12765289680040284,0.2553747786124291,0.07744801808920611,0.13952438974697157,0.06380444020895397,0.10200259189419812,0.16479290893595758,0.1331304772153203,0.22119151851000246,0.26910717020001207
0.41885780922308447,0.22446004597983935,0.03258600965069616,0.048760345897826456,0.14894981650013017,0.18901451218123433,0.12661867405415467,0.251025743573616,0.07786197843921949,0.1392296901893259,0.06429734009998174,0.10206057155530003,0.16315888674771972,0.13325524750605114,0.22059288773738092,0.2643601769213308
0.41939127176545876,0.2239710695761534,0.03256804229267373,0.04866622393511535,0.147931769343396,0.1868462568398573,0.12557036199706492,0.2466981120461968,0.07825679783242258,0.1389553923320869,0.06480435441511005,0.10208864885371152,0.16151551703081327,0.13335094321639324,0.21990246771418906,0.259617119076937
0.41983503215336265,0.22338967278903962,0.032535409305556165,0.04854580844932174,0.1468893281837657,0.1847141800787336,0.12450635825485734,0.24239339152741682,0.07863110579128033,0.13870023188533373,0.06532440630962086,0.10208721881027825,0.1598644066676526,0.1334158167461738,0.21912094003204272,0.2548818502991166
0.42018916844582327,0.2227151201432936,0.03248823635198093,0.048399507831681975,0.14582348268713877,0.18261722483762544,0.12342538705290468,0.23811273060692217,0.07898366057022314,0.1384627552876155,0.0658563093408833,0.10205654812880048,0.15820698432845012,0.13344795805718676,0.21824917831890941,0.25015782171685946
0.4204532469183053,0.22194722529570038,0.03242661325748149,0.04822767436566544,0.14473511521693178,0.18055410763125065,0.12232651341711964,0.23385699802631038,0.07931337495688144,0.1382413822626581,0.06639877828232307,0.10199674551099325,0.15654444386023353,0.13344536263664147,0.2172883451684871,0.24544807948972333
0.4206261979349597,0.22108635788940378,0.032350596119622016,0.048030626861115686,0.14362504296040005,0.1785234108969884,0.12120913627199788,0.22962691218787615,0.07961932764739912,0.1380344659044021,0.06695044255545093,0.10190777005202711,0.15487773389047618,0.13340600506545355,0.21623995224215933,0.24075534051703812
0.4207063362033144,0.22013340876903956,0.0322602277819128,0.04780868683931872,0.14249405307035728,0.1765237179829144,0.12007296067273011,0.2254231628787927,0.07990075943966603,0.13784033354093095,0.06750986263304437,0.10178947029614203,0.15320760433114425,0.13332791154591347,0.21510588241660802,0.23608210632237409
0.42069152248383246,0.21908971471663383,0.03215556456942422,0.04756221212915574,0.14134293153582644,0.17455373835088397,0.11891795020614444,0.2212465063358755,0.08015705426206124,0.13765730413722674,0.0680755492191031,0.10164163361235634,0.15153468290491678,0.13320922815985517,0.2138883747837411,0.23143077560669253
0.4205793873311,0.21795694589855566,0.03203670030976043,0.04729162271704466,0.14017248640155952,0.17261240420382412,0.11774426141580013,0.21709783215918602,0.08038770582006391,0.13748367995474026,0.06864598439218228,0.10146403425019715,0.14985955126380732,0.1330482812592107,0.21258997505462257,0.2268037414795102
0.42036755271662035,0.21673696111651286,0.031903784820679265,0.04699741831555666,0.13898356569954062,0.1706989339215502,0.11655216290349966,0.21297820212278754,0.08059227136191813,0.13731771211880578,0.06921964329062882,0.1012564776074259,0.14818280914389229,0.13284362621755785,0.21121345539882236,0.22220346974625227
0.4200538286419537,0.21543163760966305,0.03175703610843887,0.04668018756990353,0.13777707011000243,0.16881286001847032,0.11534194247879735,0.20888886223760686,0.08077031470436866,0.137157542128576,0.06979501440847055,0.10101884019409976,0.14650512358987533,0.1325940808382536,0.20976170891375132,0.21763255537560244
0.41963637533883685,0.21404270009402207,0.031596745899894335,0.04634060922211831,0.13655396001987077,0.16695402170047766,0.1141138140442574,0.2048312304502414,0.08092134588729506,0.13700113708498948,0.0703706162391231,0.10075110476271572,0.1448272611546531,0.1322987400567293,0.20823762473962767,0.21309375520712392
0.41911382299839,0.2125716153195097,0.03142327850112638,0.0459794458836554,0.13531525637034708,0.16512252432194052,0.11286785689487151,0.2008068630972739,0.08104477884665011,0.1368462640863414,0.07094500791046371,0.10045339002396543,0.14315010200896477,0.13195696921335015,0.20664395219597026,0.20858999604130057
0.4184853428888869,0.21101961471329453,0.031237063313806122,0.04559753131967637,0.13406203453779852,0.16331866997477346,0.11160402159945722,0.19681740368633263,0.08113993186113039,0.13669053538538403,0.071516791628303,0.10012597428816403,0.14147463596949797,0.13156837411203712,0.20498318227724308,0.20412435842342086
0.4177506660662794,0.20938782553940102,0.031038581632527946,0.04519575232088296,0.13279541049827437,0.16154286495737358,0.1103221964109773,0.19286451777199923,0.08120607026614282,0.1365315000693829,0.0720846051791673,0.09976931227458291,0.13980194145583255,0.13113274729514768,0.20325750338790294,0.1997000376225887
0.4169100484572455,0.20767743563051516,0.03082834858408027,0.04477502633609713,0.13151651868045658,0.1597955108857881,0.1090222954278843,0.18894981768165572,0.0812424663958116,0.13636673964662793,0.0726471033972934,0.09938404423267683,0.13813314922507122,0.13064999139883393,0.20146885906170559,0.19532028444534316
0.4159641836825623,0.20588984148744635,0.030606891250787638,0.04433627607058457,0.1302264811858225,0.15807689217168847,0.10770433969813634,0.18507478067873567,0.08124845578810512,0.13619394751077732,0.07320292830931291,0.09897099644722596,0.1364693933516699,0.13012002200856237,0.1996190634131182,0.19098832953456735
0.41491406738379955,0.20402676516507487,0.030374724615466635,0.04388040223443705,0.1289263684080645,0.15638709184557267,0.10636852267205772,0.1812406669485022,0.08122348242308576,0.1360109851677059,0.07375066966347726,0.09853117218824038,0.13481175230210327,0.12954266579980273,0.19770991703752305,0.18670729561324367
0.41376081885657096,0.20209033582838423,0.030132330767331204,0.04340825773851826,0.12761715147868788,0.1547259763923118,0.10501525808032725,0.17744845737560652,0.08116713071763369,0.13581590964616722,0.07428882722751465,0.09806573225417545,0.13316118311796335,0.1289175994871385,0.1957433026321366,0.18248010618590296
0.41250546737744154,0.20008313377857243,0.029880151656056574,0.04292063192930623,0.12629965038164936,0.15309325279607092,0.10364520921127032,0.17369884233649216,0.08107914262975832,0.13560696855722756,0.07481579919045447,0.09757596447810604,0.13151846011448676,0.12824437258689728,0.1937212574704248,0.17830941493554758
0.41114871482834436,0.1980081967043059,0.02961860000506783,0.04241825289277866,0.12497449395504208,0.15148855567197,0.1022592994372699,0.1699922694497969,0.08095941895415673,0.1353825616600405,0.07532991047830302,0.0970632419435319,0.12988414644388363,0.12752250115941166,0.1916460209262794,0.17419759181856292
0.4096907241295414,0.1958689897877584,0.029348080229624353,0.04190180487751206,0.12364211731403404,0.14991152610984057,0.10085870464497022,0.16632902106280098,0.08080800468676315,0.1351411703357073,0.07582946615190855,0.09652897019184199,0.12825861798908553,0.12675158334416056,0.18952005634526028,0.17014677383788843
0.40813104094113734,0.19366934298182376,0.029069009142298007,0.04137195045473652,0.1223028043286481,0.1483618708490447,0.09944482892806655,0.16270929086036068,0.08062505916087524,0.134881258848362,0.0763128079325474,0.09597452437343951,0.1266421222612324,0.1259314038088166,0.18734604766441323,0.1661589458311872
0.40646870776702465,0.19141336018664784,0.028781832718609034,0.04082935054585018,0.1209567549192428,0.14683940146116212,0.09801926549263752,0.15913324940619195,0.08041081246539053,0.1346011714530603,0.07677836414400913,0.09540118631263597,0.12503484267752166,0.1250620163239969,0.185126872250043,0.16223601572989205
0.40470249543953857,0.18910530612883278,0.028487038336339414,0.04027468049024059,0.11960415502163918,0.14534405439157103,0.09658374520376044,0.1556010970581465,0.08016551039621453,0.13429908688363465,0.07722468961012707,0.09481011075007716,0.12343695516329273,0.12414380005652463,0.18286555240925695,0.1583798728002899
0.4028311481788458,0.18674947745039974,0.028185162129032663,0.03970864174734445,0.11824524052966583,0.14387589365316958,0.09514007557461412,0.15211310296642852,0.07988935418737943,0.13397307278628168,0.07765049250326847,0.0942023458506983,0.12184867448104983,0.12317748688880255,0.18056518888647113,0.15459242797415598
0.4008536033123496,0.18435006664150305,0.02787679132317202,0.039131968963406094,0.11688035208845754,0.14243509863677198,0.09369007326946772,0.14866962919531362,0.0795824539740564,0.13362120538723246,0.07805464583278161,0.09357889622410531,0.12027028876672895,0.12216415894572338,0.1782288803294758,0.15087563640284263
0.39876917851595156,0.1819110458626048,0.027562561653866165,0.03854543228704781,0.11550997775786816,0.14102193989025066,0.09223549542815958,0.14527113941384392,0.07924482213000317,0.13324169509402736,0.07843618215600318,0.0929407975441101,0.1187021811028695,0.12110521737576387,0.17585963315514547,0.14723150328942747
0.39657772017267257,0.1794361233014563,0.027243150174220642,0.03794983498774909,0.11413478094324511,0.13963674583247856,0.09077798543399368,0.14191819207565853,0.07887641117667052,0.1328329921735363,0.078794271123015,0.0922891848007192,0.1171448373913175,0.12000232513440283,0.17346026993661456,0.14366207482399612
0.39427970730723105,0.1769287957575083,0.02691926398726185,0.03734600661315309,0.11275561159081049,0.1382798632385582,0.08931905771059905,0.13861141853861947,0.07847717247764813,0.13239386601396094,0.07912818054446658,0.09162534864021428,0.11559884030377907,0.1188573279334615,0.17103335921127416,0.14016941663938307
0.39187630660682277,0.17439245344561308,0.026591625629387015,0.036734792106777714,0.11137349943277827,0.13695161400685066,0.08786012785135591,0.1353514871415488,0.07804711214403211,0.13192345364551908,0.07943722270847603,0.09095077696388301,0.11406484966689133,0.11767215857271417,0.16858120013075015,0.1367555826050043
0.3893693753397855,0.1718304823816472,0.026260956006607536,0.03611703748656867,0.10998962899252954,0.13565225025645303,0.08640256422730692,0.1321390548372092,0.07758633572749808,0.131421275261335,0.07972069030937935,0.09026717979925407,0.1125435702426535,0.11644873155849063,0.1661058686825809,0.1334225769818883
0.38676141058204855,0.1692463454959736,0.02592795659871128,0.03549357284477088,0.10860529706154087,0.13438190927412536,0.08494773584285738,0.12897470855624946,0.07709507965025718,0.13088721655343094,0.07997779901789141,0.08957649645892157,0.11103570844821084,0.11518884965146771,0.16360929297416876,0.13017231297773071
0.38405544507303263,0.16664364091990347,0.025593295578887544,0.03486519404272602,0.10722185436963726,0.13314056930028356,0.08349704821511948,0.1258589021735453,0.07657372803344747,0.1303214796222431,0.08020766904753496,0.08888088508551911,0.10954192007347437,0.11389416612714931,0.16109332502458953,0.1270065705792244
0.381254892221384,0.164026137010238,0.025257604454595767,0.034232647539449726,0.10584063411983492,0.13192800882033306,0.08205196671932768,0.12279190813597085,0.07602281435244587,0.12972450592464135,0.08040936111699754,0.08818269576159783,0.10806275373978892,0.11256622441295698,0.15855979895255345,0.12392695622151957
0.3783633451872647,0.16139778470929975,0.024921486435330976,0.033596626093840544,0.10446287883049488,0.13074377892973474,0.08061402759912317,0.11977381195804707,0.07544300813255235,0.12909687611763687,0.0805819436578324,0.08748442935111944,0.10659860563766414,0.11120654039057051,0.15601057502955573,0.12093486944238747
0.3753843374456655,0.1587627087437107,0.024585529979673715,0.03295777819879036,0.10308969662208552,0.129587201778212,0.07918483754592985,0.1168045558956417,0.07483508766469403,0.1284391926838296,0.08072456094879926,0.08678868505281379,0.10514971025880956,0.10981668214572278,0.1534475697368392,0.1180314870510299
0.37232109392904567,0.15612517991806893,0.024250321011062326,0.032316724579299676,0.1017220757883224,0.12845739605609446,0.07776606334930289,0.11388400580594608,0.07419990043144861,0.12775196610298634,0.08083649012397687,0.08609810021996592,0.10371617461714168,0.1083983309607525,0.15087277249985645,0.11521777052020483
0.3691763597178508,0.1534895713447117,0.023916451767421278,0.03167407396938121,0.10036094790351953,0.1273533162187647,0.0763594135639343,0.11101201419621948,0.07353831355256163,0.1270355553836282,0.08091718397104601,0.08541528629672236,0.102298034737979,0.10695332189747142,0.1482882501584534,0.11249448707325622
0.36595240670672513,0.1508603018635459,0.02358452622109222,0.031030435399285763,0.0990072647443305,0.12627379377422945,0.07496661439887117,0.1081884695993411,0.07285115873540148,0.12629020020167114,0.08096629717504841,0.08474276945688905,0.10089531106550001,0.1054836635610886,0.14569614046590662,0.10986223045590335
0.3626512141561213,0.1482417701504923,0.023255162234502007,0.030386426605032015,0.09766206599499605,0.12521757735307382,0.07358938209973055,0.10541332996201869,0.07213918598457157,0.12551611701748214,0.08098369453442553,0.0840829548644903,0.09950805438719872,0.1039915378291979,0.14309863601146586,0.10732143561361461
0.35927471854775267,0.14563828309902008,0.022928990804381388,0.02974267840972054,0.09632653053995775,0.12418337113639209,0.07222939397498979,0.1026866387013633,0.07140305021522854,0.12471360539765994,0.08096944064113454,0.08343812913165836,0.0981363805280502,0.1024792814086531,0.1404979599582127,0.10487238732994253
0.35582504636084933,0.1430539846516287,0.022606652882436712,0.02909983516586281,0.09500200881198727,0.12316987090247425,0.07088825994177089,0.10000852319512983,0.07064333960021832,0.12388313794341568,0.08092377152781081,0.08281049053151023,0.09678049257740802,0.10094935199191929,0.13789633491881056,0.1025152239159528
0.3523047012393542,0.14049280221996827,0.02228879433971022,0.02845855157162538,0.09369003491352233,0.12217579663501622,0.0695674960798994,0.09737917662542624,0.06986062559910192,0.12302542788170438,0.08084704978645779,0.0822021833702541,0.09544068997761189,0.09940428247591787,0.1352959461974699,0.10024993718223495
0.3487166983109286,0.1379584354138358,0.021976059668100095,0.027819486364949245,0.09239231860376115,0.12119992035196614,0.06826850333910522,0.09479882519075816,0.06905551128249265,0.12214147202161758,0.08073970559237684,0.08161532313364678,0.09411736439953722,0.09784662714301462,0.13269890054484265,0.0980763699639113
0.34506464167627376,0.13545439126420813,0.02166908499282049,0.027183293545030254,0.09111071861485343,0.12024108760620926,0.06699255801206645,0.09226768363687281,0.06822866947727663,0.12123256797577271,0.08060216685922576,0.08105201011868826,0.09281098292891016,0.09627890386221985,0.13010718153025969,0.09599421241784215
0.3413527444639321,0.13298404054188903,0.021368490913851502,0.026550611862558693,0.08984719999324414,0.11929823101981116,0.06574081707193112,0.08978590274984304,0.06738086930021939,0.1203003057485236,0.08043479204224979,0.08051433235194537,0.09152205965927598,0.09470353744405013,0.1275226037642651,0.09400299818703417
0.33758579406614125,0.13055067014519925,0.021074875613409358,0.02592205335568561,0.08860377913897537,0.11837037428015579,0.06451433176820813,0.08735351991995793,0.06651299035516163,0.11934653497245631,0.08023783855066448,0.0800043592397589,0.09025111730510046,0.09312281548768309,0.12494677591564989,0.09210210134965938
0.33376906800631734,0.1281575237618087,0.020788808570220852,0.025298192851308597,0.08738246085163805,0.11745662527306912,0.06331406104100938,0.08497043743465688,0.06562602457901175,0.11837331019735944,0.08001148834402727,0.07952412788343331,0.08899864088676462,0.09153887334314312,0.12238109190267038,0.09029073485946044
0.3299082081710215,0.12580783031023943,0.02051082525564932,0.0246795626886579,0.08618517618067142,0.1165561574574772,0.06214088190577134,0.0826364432071318,0.06472106638665806,0.11738281765719087,0.07975590970797779,0.0790756243023972,0.08776502877909897,0.0899537111114937,0.11982675856732375,0.0885679509614832
0.3260090627679134,0.12350482021418052,0.02024142358969515,0.02406665557583937,0.08501374095061079,0.11566817917461601,0.06099559697973382,0.0803512563557102,0.06379929234556822,0.11637728781065242,0.07947132148052062,0.07866076193553541,0.08655055656726386,0.08836922407876638,0.11728484398485083,0.08693264385275265
0.32207750630868487,0.12125173006733031,0.019981063049770445,0.02345993288168499,0.08386985419070496,0.1147918912825625,0.05987893946865962,0.0781145715132715,0.06286193207860266,0.11535890143310287,0.07915804560544192,0.07828135974536474,0.08535537394792202,0.08678722810373905,0.11475632708013696,0.0853835546697415
0.3181192481801004,0.11905179668687248,0.01973016613913891,0.02285983348024649,0.08275513093106635,0.11392643424480334,0.05879157584762124,0.07592609156789015,0.06191023243143551,0.11432971233374838,0.07881654536846328,0.07793912205101797,0.08417953688999699,0.08520947499363521,0.11224214161221262,0.08391927873421721
0.3141396509378107,0.11690824191180159,0.019489120649838924,0.02226678080566475,0.08167114440464178,0.11307083058047213,0.057734106387886994,0.0737855476851883,0.06094541714329242,0.1132916240574695,0.07844744797368364,0.07763562188981875,0.08302305525926526,0.08363765892432486,0.10974321331935905,0.08253827487648589
0.31014360901201316,0.11482424976542452,0.019258281517120227,0.021681187786065908,0.08061945980875859,0.11222394263000131,0.056707063627526214,0.07169270666033326,0.05996864798379977,0.11224643212503865,0.07805155104943791,0.07737228928361257,0.08188593729516196,0.08207341550084153,0.10726048922407441,0.08123887656988357
0.30613553994409237,0.11280293776446335,0.019037972084696837,0.021103459728564374,0.07960165528651701,0.11138447217461178,0.05571090887004742,0.06964736644200008,0.058981001798489814,0.11119589802660812,0.07762981357290408,0.07715040529688667,0.08076822447315658,0.08051831540630587,0.10479495836809657,0.08001930453673536
0.3021194754648756,0.11084732422372234,0.018828484974007496,0.02053399532493656,0.07861933048901691,0.11055100559927702,0.05474602682497226,0.06764934132372367,0.05798347582441873,0.11014181738653579,0.07718333251459107,0.07697110224978443,0.0796700152044496,0.07897385474132589,0.10234766356430822,0.07887768040933842
0.29809918444821093,0.10896029338567859,0.01863008274885893,0.019973186021700937,0.07767410383921025,0.1097220808227957,0.05381271856909727,0.06569843877871023,0.05697701525300096,0.10908606912492831,0.0767133071821951,0.0768353699184637,0.07859147638439606,0.077441444117108,0.09991970409041662,0.07781204094169947
0.2940782773031944,0.10714456267891546,0.018442998549933767,0.019421414048762242,0.07676760023123128,0.10889625354842936,0.05291119368433589,0.06379443020969407,0.05596254617479155,0.10803064387089394,0.07622099375648209,0.07674406704471794,0.07753284243099089,0.07592239835506503,0.09751222958378544,0.07682035216901174
0.29006027933932155,0.10540266281082096,0.018267436842986796,0.018879049428555547,0.07590143135068161,0.10807215482973623,0.05204156464055298,0.061937019634560136,0.05494100355607184,0.10697765126874079,0.07570765284218475,0.07669793701467292,0.07649440212112259,0.07441792829758889,0.09512642570754645,0.07590052281022812
0.28604867394295197,0.10373694086209996,0.01810357438230188,0.018346446294906883,0.07507717108611686,0.10724853764053142,0.0512038477947307,0.06012582032199565,0.05391335172365018,0.10592930720800002,0.07517449496198612,0.07669762618351857,0.07547647419465142,0.07292913579166098,0.09276349243360049,0.07505041611851812
0.2820469180027411,0.10214958271519894,0.01795156144034314,0.017823938840370455,0.07429632861960055,0.10642431069221377,0.0503979718586099,0.05836035255644297,0.05288059698847784,0.10488790329051778,0.07462263758928868,0.0767437030511726,0.07447937331196604,0.07145701241675809,0.09042461602533136,0.07426785932212489
0.2780584333748724,0.10064264113914297,0.017811523299873427,0.017311837185640586,0.07356032173816324,0.10559855837540331,0.04962378993406405,0.05664006428143865,0.05184379243891156,0.10385576192030596,0.07405309392754711,0.07683667636004614,0.07350336847927268,0.07000244203915261,0.08811093600366043,0.07355064978185603
0.27408657922752555,0.09921806022031585,0.01768356195139858,0.016810423548267943,0.0728704533283697,0.10477054637128008,0.04888109114866189,0.054964361633191974,0.050804035307810656,0.10283518118199594,0.07346679812026402,0.07697701020779492,0.07254864201104473,0.06856620682943078,0.08582350854631084,0.07289655703644689
0.270134610802659,0.09787769386691415,0.01756775789202124,0.016319949584147207,0.07222789529041013,0.10393971313162163,0.048169610299696665,0.05333263698015802,0.04976245764919107,0.10182837447707453,0.0728646477578522,0.07716513444662994,0.07161526889501661,0.06714899601237594,0.08356327178066825,0.07230332002318755
0.2662056304522059,0.09662331831786743,0.017464171886306598,0.015840636110309385,0.07163368280607924,0.10310564801648549,0.04748903487191756,0.05174429049803394,0.048720211337994916,0.10083741713341172,0.07224754390873114,0.07740144896153336,0.07070323106946065,0.0657514163498572,0.08133102737248521,0.07176863894998178
0.26230253673347226,0.09545663885938337,0.017372846529054655,0.01537267529588733,0.07108871564322972,0.10226805736366662,0.04683900885413356,0.05019874480045977,0.04767844862152703,0.09986422308194935,0.07161642217571411,0.07768632085420107,0.06981245578078071,0.06437400319855825,0.07912745056006058,0.07129016154777612
0.25842797689285746,0.09437929119823074,0.01729380744621272,0.014916233845469563,0.0705937594630042,0.10142672011790735,0.0462191328796451,0.048695452468050786,0.04663829959631538,0.09891056188338529,0.0709722740707663,0.0780200740699263,0.06894285700699271,0.06301723093699213,0.07695312218289986,0.07086546373102165
0.254584307256739,0.09339283814805326,0.017227063984508635,0.014471455804364083,0.07014944560972586,0.10058143486349416,0.0456289603571549,0.04723389661086252,0.045600848417802375,0.09797809584453956,0.07031615848714454,0.07840297154759596,0.06809436941081987,0.06168152161489208,0.07480856604491372,0.07049202684566298
0.25077356493313196,0.09249876244266536,0.01717260927201585,0.014038464632367926,0.06975627479566776,0.09973196019583076,0.04506798944380268,0.045813584862896634,0.044567113333064574,0.097068412130585,0.0696492035280105,0.07883519050400836,0.06726697221094656,0.060367250831400175,0.07269428176002,0.07016722040549021
0.2469974528771014,0.09169845659021825,0.017130419578037476,0.013617364617338527,0.069414628280958,0.09887795540691263,0.04453565231375222,0.04443403744424896,0.04353803986992547,0.0961830414993704,0.0689725994034408,0.07931679540619715,0.06646070185364773,0.05907475008029224,0.07061077055371726,0.0698883032897806
0.24325733887390272,0.09099321071917402,0.017100452956709054,0.013208241726212586,0.06912478366466979,0.09801894220473747,0.044031307653952106,0.04309477013838116,0.042514510941488254,0.0953234637515666,0.0682875835041936,0.0798477217678285,0.06567565303832487,0.05780430509068186,0.06855855333723179,0.06965244675340432
0.23955426744727296,0.0903841993393527,0.017082647218311642,0.012811164007596158,0.06888693042486885,0.09715431020410788,0.0435542442870409,0.041795273217132556,0.0414973655835371,0.0944911009667038,0.06759541906902732,0.08042778304939843,0.06491196835730575,0.05655615001686335,0.0665381807702478,0.06945676949038518
0.23588898221588514,0.0898724678512083,0.01707691732842209,0.012426181666601309,0.06870118221192743,0.09628336383015282,0.043103697333330575,0.040534989918870855,0.04048741644317163,0.09368730041512514,0.06689736905721537,0.08105669713650024,0.06416981751074848,0.05533045766510071,0.06455023544287286,0.06929837462902778
0.23226195491172724,0.08945891949135058,0.017083152381030673,0.01205332692986859,0.06856758419435711,0.09540538679507103,0.04267887083244844,0.03931330408037192,0.039485462683122106,0.09291330964201631,0.06619466690835368,0.08173411901362519,0.06344936770242744,0.054127326260362534,0.0625953267053797,0.06917438475141596
0.22867341625048282,0.08914430321490142,0.01710121248310107,0.011692613807998865,0.06848611433669544,0.09451970588680794,0.04227896078748883,0.03812954592874602,0.03849229812635252,0.09217024759356998,0.06548848582597608,0.08245967085209253,0.06275074735748729,0.05294676598374303,0.06067407902492345,0.06908197347897377
0.22512338320723124,0.0889292032963401,0.017130926426870804,0.011344037845801699,0.06845667813790873,0.09362574821890492,0.04190317579155206,0.036983013202438866,0.03750871474069253,0.09145908056994041,0.06477991033663633,0.0832329664610102,0.062074010466925136,0.05178869375614505,0.058787115028126856,0.06901839220779817
0.22161167708546786,0.08881403265376892,0.01717209121066631,0.01100757593010249,0.0684790969870836,0.09272308977617347,0.04155075356570064,0.0358729968980203,0.03653550181097804,0.09078061550748655,0.06406991911439783,0.08405362856714223,0.06141911876701991,0.05065294245488819,0.056935034583491397,0.06898099063862671
0.21813792713217584,0.08879903202747161,0.017224473408992823,0.010683186202704286,0.06855309196715399,0.09181149303508578,0.041220971878121675,0.034798804486900134,0.03557344135372059,0.09013551367917715,0.06335938694809297,0.08492129783367967,0.060785953697386694,0.04953928009968559,0.055118391384748756,0.06896722982534231
0.21470155536932783,0.0888842743528769,0.017287811210897317,0.010370808104715662,0.06867826989762155,0.09089093153062999,0.040913152614903955,0.03375977843710562,0.03462330048723162,0.08952431332325009,0.06264910202328859,0.08583563307086407,0.06017434814361335,0.04844743069482112,0.053337669843109635,0.0689746865754752
0.2113017397596118,0.08906967131823249,0.017361816079659167,0.010070362559759396,0.06885412210865159,0.08996159954463044,0.04062665821258616,0.03275530930597198,0.03368582157274414,0.08894744916915742,0.061939787336682144,0.08679630268517474,0.05958412004463116,0.047377092941968645,0.05159326929016714,0.06900104820087777
0.20793736179882893,0.08935498010291908,0.017446173681381728,0.009781752289037462,0.06908003958772703,0.08902390563209303,0.04036088020168734,0.03178484293004084,0.03276171098800533,0.08840526505071483,0.06123211925913367,0.08780296799606675,0.059015099599317014,0.04632795603949139,0.04988550374690333,0.0690440968664493
0.20460696910935586,0.08973981013983723,0.017540543994728337,0.009504862241763404,0.06935533720796477,0.08807844946595463,0.04011522019729631,0.030847881517413772,0.031851628148300025,0.08789801958966688,0.06052674176167126,0.088855259553404,0.05846714862009792,0.0452997122308185,0.04821461684961993,0.0691016831449199
0.20130879574923438,0.0902236302557599,0.017644560533393087,0.009239560120352113,0.06967927868787326,0.087125982407983,0.03988906425197772,0.02994397873569258,0.030956178460989813,0.08742588539109969,0.059824276393521836,0.08995274795779927,0.05794017179996632,0.044292066007582044,0.046580802261238896,0.06917168886796013
0.1980408495559076,0.09080577639983366,0.017757828639939254,0.008985696980493839,0.07005109903164194,0.08616735321481395,0.03968175655291165,0.02907272917653399,0.03007591398516346,0.08698894250666281,0.05912532830900454,0.09109491088575204,0.05743412018688938,0.0433047400790858,0.0449842213497731,0.06925197995926237
0.1948010348555986,0.09148545998235781,0.01787992311886535,0.008743107890581508,0.07047002351348708,0.08520344126047681,0.03949258789982235,0.028233752855662327,0.029211340958536364,0.08658716708646318,0.05843048881105614,0.0922810996283495,0.05694898758393589,0.04233747836789332,0.04342501572145273,0.06934035810342853
0.19158727792803623,0.09226177663422738,0.01801038638441994,0.008511612641073762,0.0709352825033196,0.08423508560470636,0.03932080960116852,0.027426675662492298,0.02836292937071007,0.0862204161718087,0.057740334987475626,0.09351051372746799,0.05648480088974814,0.041390046372151594,0.04190331447925227,0.06943453687038265
0.1883976400826235,0.09313371498551792,0.01814872876008119,0.008291016500197966,0.07144612164127055,0.08326303441074519,0.039165663899336546,0.026651108360261706,0.027531120932005923,0.08588841021103076,0.057055427039217656,0.09478219458957982,0.05604160555399939,0.04046222925023935,0.04041923638370328,0.06953216287406051
0.18523041032798243,0.09410016487268472,0.018294431303702355,0.00808111101603206,0.07200180704421322,0.08228794420903146,0.039026415845431116,0.025906631537429083,0.026716334461464934,0.08559071844024015,0.05637630382986523,0.09609503895958732,0.05561944735337413,0.03955382794314276,0.03897288738535048,0.06963087045952998
0.1820841710186051,0.09515992423781741,0.018446949950931622,0.00788167486504106,0.07260162537012123,0.08131042954788385,0.03890238002527074,0.02519279560264102,0.025918968682823923,0.08532675607748347,0.05570347703487084,0.09744782140826995,0.05521835161559258,0.0386646535711499,0.037564354254734304,0.06972834432868746
0.17895783184561548,0.09631170389586487,0.018605719680311158,0.007692474742837813,0.07324487868486244,0.080331133261615,0.038792940434505,0.02450913621408134,0.025139402565100596,0.08509579723140973,0.05503742407297156,0.09883921622206253,0.054838300861926564,0.03779452024353179,0.036193695235679994,0.0698223765279531
0.17585062986679595,0.09755412932693287,0.018770158010492848,0.007513266284245153,0.07393087418084018,0.07935079152500603,0.038697562336359466,0.02385519596919324,0.02437799348238607,0.08489699741032537,0.05437857980832589,0.10026781611184879,0.0544792119867516,0.036943236323682446,0.03486092877587022,0.06991091333263504
0.1727620956968243,0.0988857387050584,0.018939667362462696,0.007343794987248109,0.07465890889484093,0.07837028499562611,0.0386157954647064,0.023230544186150774,0.023635073588212246,0.08472941807703563,0.05372732686807719,0.1017321478671832,0.05414091719152755,0.036110594118852896,0.033566022382251974,0.06999208898360935
0.1696919882761707,0.10030497650045112,0.01911363583659471,0.007183797100253014,0.07542824966652463,0.07739067394734764,0.038547268496244506,0.022634792017833725,0.022910944895167474,0.08459205041663227,0.05308398436104307,0.103230685179823,0.0538231575009876,0.03529635793264147,0.03230888599107396,0.07006424390974728
0.1666402026223238,0.10181018218094692,0.01929143601303784,0.0070330004157766355,0.07623810866968651,0.07641321625526623,0.03849167526795057,0.02206760230205404,0.022205873945001123,0.08448383747298355,0.05244879498563678,0.10476185885250396,0.053525593302071,0.03450025085109765,0.031089373808300087,0.07012592593832175
0.16360665650859993,0.1033995737768032,0.01947242148343864,0.006891124898249583,0.0770876149374612,0.07543936807724486,0.03844875372145597,0.021528693887885766,0.02152008807864628,0.08440369361824433,0.051821913230920426,0.10632406450264544,0.05324782524756568,0.0337219435766102,0.029907293045960643,0.07017587399609346
0.1605911694829398,0.10507122634386983,0.019655921338100322,0.006757883061363705,0.07797578598079354,0.07447076802473622,0.03841825898128329,0.02101784051509265,0.02085377566333483,0.08435052015613152,0.05120340202197073,0.10791566768554428,0.052989416930016846,0.03296105251264419,0.028762414039448465,0.07021298486590695
0.1575933714141146,0.1068230477186517,0.0198412349110822,0.006632980003857951,0.07890151189408964,0.0735092064669523,0.03839993278776784,0.020534864635882107,0.02020709025323222,0.08432321576431256,0.050593242654845286,0.1095350061262257,0.05274991636626264,0.03221715092651902,0.027654477999584686,0.07023626460993077
0.15461269028845545,0.10865276043747406,0.02002763136287981,0.006516113014305695,0.07986356294004834,0.0725565823221466,0.03839347629059662,0.020079626836200966,0.01958015601723428,0.08432068048669171,0.049991353645001776,0.11118038849740894,0.052528875877524056,0.03148978837717824,0.02658320154863246,0.07024476722132385
0.15164842630337214,0.11055790108889134,0.020214356602217314,0.006406970667392383,0.08086061629972431,0.07161485022800447,0.03839853953676724,0.019652011725452636,0.018973072096923956,0.08434181211507975,0.04939761149160925,0.11285008894882008,0.05232586981270785,0.030778511753073723,0.025548278194395174,0.07023752839169548
0.14869986446943448,0.11253583839697419,0.02040064517573002,0.0063052315877485205,0.08189128958454561,0.07068596133500128,0.03841473384282347,0.0192519113127359,0.018385915199415657,0.08438549406218789,0.048811870364282604,0.11454233641488479,0.052140509444311554,0.030082885153204682,0.024549377106957555,0.07021351699240201
0.14576637998643066,0.11458380073134554,0.020585733545855602,0.0062105637402267945,0.08295417398709405,0.06977180711800984,0.03844165662721095,0.018879208128601638,0.01781874042801595,0.08445057422143809,0.04823397976404057,0.11625529763429025,0.05197245429779021,0.029402507669828177,0.023586139722132384,0.07017163187947671
0.14284752140217197,0.1166989046365644,0.02076887297318657,0.006122625340652411,0.08404786491210986,0.06887418841369977,0.03847891546923588,0.018533763637216125,0.017271580488013784,0.08453583481802712,0.04766379923416101,0.11798705283135966,0.05182141917625623,0.028737028128181196,0.02265817479521906,0.07011074535041745
0.13994306937555936,0.11887818112095973,0.020949341067330596,0.006041067537280719,0.08517098878051993,0.06799482628404184,0.03852614669941032,0.018215417847000537,0.016744443524276124,0.08463995740222999,0.04710120927628821,0.11973556315552025,0.05168717621898635,0.028086155912703078,0.021765053414360684,0.07002976610386347
0.1370530702345868,0.12111859820575234,0.02112645107206797,0.005965538079439296,0.08632222476694712,0.06713540251898331,0.038583028092161464,0.01792399923433736,0.016237310289840073,0.08476149821151253,0.04654611775005237,0.12149863183642895,0.05156955147960725,0.027449667158075747,0.02090630716597968,0.06992769764873762
0.13417784479486067,0.12341707827292396,0.021299558025686262,0.005895685258630804,0.08750032037586294,0.06629760463674936,0.03864928564690189,0.01765933799007153,0.015750132355706634,0.08489889288188886,0.0459984611915083,0.12327387201451283,0.0514684157175274,0.026827405797717734,0.02008143157991606,0.06980368401968179
0.13131797402697176,0.12577050884243296,0.0214680610848356,0.0058311617774857785,0.0887040999662722,0.06548316217147578,0.038724694789053535,0.017421277114729412,0.015282833161470782,0.0850504921271469,0.04545820067471054,0.1250587038115735,0.05138366935117967,0.02621927922738499,0.01928989295966991,0.06965704086722649
0.12847426409135665,0.12817574555342778,0.021631401511597547,0.00577162830161255,0.08993246557625875,0.06469387158376627,0.03880907657502232,0.01720967976736353,0.014835311716009084,0.08521461193878858,0.04492531206627145,0.12685039012675287,0.051315221808644826,0.025625248639101317,0.018531135275149123,0.06948727081466625
0.12564769397394263,0.13062960631908616,0.021789056083052767,0.005716756441934199,0.09118438965452688,0.0639316095303153,0.03890228963768863,0.017024432707841652,0.014407446991443753,0.08538958345014196,0.04439977079096746,0.1286460972396641,0.05126296581171834,0.025045314392695847,0.017804585588331267,0.06929406279262496
0.12283934944729852,0.13312885587198567,0.021940525969426392,0.005666230928707341,0.09245889956142228,0.06319833489245966,0.039004218668732576,0.016865445917246414,0.013999101422709602,0.08557379637970383,0.04388153153652586,0.13044296284645948,0.051226748793930625,0.02447949710282211,0.01710965776452939,0.06907727583931522
0.1200503473559215,0.13567018021967234,0.022085321417411066,0.005619750773102916,0.09375505395243187,0.06249608053485389,0.03911476021760072,0.01673264871366188,0.01361012296267456,0.08576573318490352,0.04337050553113685,0.13223816377817688,0.05120634980720086,0.023927815829238197,0.016445754461189684,0.0688369085647037
0.11728175429708887,0.13825015089134648,0.022222944051394983,0.005577029265718904,0.09507191140642783,0.06182693621089466,0.03923380651655538,0.016625982888382837,0.013240345569286013,0.08596399155937191,0.04286654419402655,0.13402897952539336,0.051201475263382944,0.023390268676303155,0.015812267478491196,0.06857305610477168
0.11453451145648484,0.14086517927608666,0.02235287308052104,0.005537792729422068,0.09640849191389454,0.0611930243351897,0.03936122794191779,0.016545393558123147,0.012889588137906884,0.08616729360270865,0.04236944038977023,0.1358128473330207,0.051211777741213424,0.022866826228659876,0.015208576621866829,0.06828585692693917
0.1118093941274727,0.14351146861548392,0.022474564265895218,0.005501778020754345,0.09776373209620351,0.06059647050492005,0.039496854617439764,0.016490818549920752,0.012557652025918756,0.08637448081102467,0.04187894839128265,0.13758740451665297,0.0512368871480859,0.022357442732212726,0.014634047264569806,0.0679754337321688
0.10910702778109627,0.14618498706883257,0.022587463593527334,0.005468728853290459,0.09913644057441506,0.060039370683007465,0.03964045968467228,0.01646217805884926,0.012244318142642183,0.0865844948958482,0.04139481230696941,0.13935051381831745,0.0512764423163624,0.02186207685287755,0.01408802681267283,0.06764184268367415
