EMG01_right_gast_med,EMG02_right_glut_max,EMG03_left_gast_med,EMG04_left_glut_max,EMG05_right_glut_med,EMG06_right_bic_fem,EMG07_right_rect_fem,EMG08_right_vast_lat,EMG09_right_vast_med,EMG10_right_tens_fasc_lat,EMG11_left_glut_med,EMG12_left_bic_fem,EMG13_left_rect_fem,EMG14_left_vast_lat,EMG15_left_vast_med,EMG16_left_tens_fasc_lat
0.06768560329374193,-0.037196795095256995,0.04414445349566502,-0.006205833281468097,-0.04415225046071614,0.040330929408675796,0.007056236196110035,0.012869840119360093,-0.01830512058816007,0.019759494128327497,-0.005647179308024311,0.08001957296125743,0.005342905919272824,0.0023087027351179124,-0.017069770988911468,0.012104052646908746
0.0725980901922833,-0.03003042005853834,0.04476256743054236,-0.0023822118454084893,-0.040048516962184255,0.0420204633342358,0.008734456144463268,0.014172836467157035,-0.015264732257880711,0.021151910612430883,-0.0021844669170085125,0.08166741976443646,0.006171756324217104,0.004664843524940578,-0.01602057840884791,0.012750045780773822
0.07749619609916772,-0.02292093486567623,0.04539887323861519,0.0013814180370504033,-0.03599187337767338,0.043703741699829074,0.01039898402981106,0.015480252482874695,-0.012231231762981848,0.022541061725522265,0.0012619105633384254,0.0833317947942982,0.007002598356146279,0.007011688150692366,-0.014960271926172625,0.013394120984561136
0.08237484827938397,-0.015878446945152204,0.04605312606197354,0.005078516375974616,-0.03198827263113731,0.045378791973453264,0.012047458923383455,0.016790881898700812,-0.009208807818112714,0.023924851956046402,0.004686499887522583,0.08501169869667186,0.007834663996753236,0.009346208761770053,-0.013889554071889229,0.014035561088851022
0.08722900917151778,-0.008912769730018918,0.046725060034371886,0.008702768715294249,-0.02804351160934764,0.047043575573734474,0.013677557378895097,0.01810350529145265,-0.006201420616680274,0.025301244858746838,0.0080841252650287,0.0867061151646748,0.008667187192797084,0.011665456393346381,-0.012808992575782515,0.01467370419277157
0.09205378622384842,-0.0020333006381997856,0.04741439235659221,0.012248203926381733,-0.024163171799884024,0.04869597608672479,0.015287025588902877,0.019416901916833682,-0.0032127336900850444,0.026668293023511022,0.011449974020756688,0.08841409318074744,0.009499412925727752,0.013966589123337153,-0.01171898399107855,0.015307945114941686
0.09684456492736973,0.004751096916959268,0.04812082161467437,0.015709302728394613,-0.020352548963592426,0.05033379588979515,0.01687371099942524,0.02072986632969791,-0.0002460689042859125,0.028024160626202204,0.014779650984406655,0.09013482802696876,0.010330606836543023,0.016246897216398236,-0.01061972979612057,0.015937721779392445
0.10159712289817249,0.011432193347238233,0.048844021145663816,0.01908107933190891,-0.016616582215710586,0.05195476525151403,0.018435587940740662,0.022041224523908217,0.002695615382224881,0.02936713590733526,0.01806920198313934,0.09186771378248546,0.011160063750111594,0.018503824239094406,-0.009511225935318024,0.016562492455052917
0.10630771569075982,0.018002468211145293,0.04958362822987509,0.022359135121528623,-0.012959789608939128,0.05355656190617914,0.019970776657973442,0.023349847048985985,0.005609724119478134,0.030695631828629107,0.021315107558945903,0.09361236614428031,0.011987114976113843,0.020734983154676624,-0.008393264059521035,0.017181716736423235
0.1109731320520786,0.024455155712836643,0.05033922993086415,0.02553968399755302,-0.009386216572936604,0.05513683707013997,0.021477555332631324,0.02465465762412103,0.0084940053833922,0.032008174146596444,0.024514249215227293,0.0953686183398293,0.012811134173754693,0.02293816649697181,-0.007265442469589809,0.017794855505255943
0.11559071698739061,0.030784256458250444,0.051110346588554054,0.02861954974243567,-0.0058994024015230915,0.056693245817184414,0.022954364914942998,0.025954636100418656,0.011346513078008005,0.03330337715532256,0.027663851608377178,0.09713649385178315,0.013631541496277592,0.02511134984184713,-0.006127184592455511,0.01840139210785492
0.12015836165955794,0.03698451327594096,0.051896416385300556,0.03159613628093728,-0.0025023682264174734,0.05822348026674757,0.02439980676670188,0.027248815068405402,0.014165555784762508,0.034579908338353185,0.030761404772009327,0.0989161600255363,0.01444780566731735,0.027252687925222105,-0.0049777629323842585,0.01900086248446245
0.12467446018889779,0.0430513507718058,0.05269678846099912,0.034467372359749525,0.0008023718416419044,0.05972530337167385,0.025812633302000572,0.028536269853459445,0.01694963531497939,0.03583644692487539,0.0338045711003351,0.10070786695533954,0.015259443630177718,0.029360502921804445,-0.003816326538981873,0.01959288257127406
0.12913783474958054,0.048980780166548846,0.05351072904116447,0.03723163294057931,0.004012776390527556,0.06119658062234819,0.027191731993260543,0.029816102070964606,0.019697378674842125,0.03707165151186265,0.036791091548763595,0.1025118762734531,0.0160660174560567,0.03143326460932969,-0.0026419301381425827,0.020177168452302024
0.13354763168400952,0.05476927278031286,0.054337435893646376,0.03988764029668557,0.007127220832084434,0.06263530671994723,0.028536103249662704,0.031087417342770842,0.022407472248783197,0.03828415634782948,0.03971872704167159,0.1043283857768063,0.016867128283041755,0.033469562402925264,-0.0014535633008353195,0.020753547828835157
0.13790319268569,0.06041360716650941,0.055176054259067214,0.04243434850952004,0.010144422999822288,0.06403962426823553,0.029844832796767973,0.0323493007823937,0.025078619122412805,0.03947259895425675,0.04258526632002734,0.10615746545295987,0.017662407187519286,0.03546806955913253,-0.00025017670088988645,0.02132196205734652
0.14220390637368333,0.06591070997310748,0.05602569172215478,0.044870825602696195,0.01306335426151937,0.0654078318109755,0.031117059304190894,0.03360080070493461,0.02770953781987021,0.04063566161756064,0.045388586866592834,0.10799903173091813,0.018451503055467378,0.03742750020911258,0.0009693008226919211,0.021882458638048132
0.1464490663238655,0.07125754777339567,0.056885431633601616,0.0471961742997512,0.015883143627295985,0.0667383790715485,0.03235193811686278,0.03484093104474208,0.03029899434120845,0.04177210998052108,0.04812672949809812,0.10985287011375217,0.019234067700408756,0.03934656511265629,0.002205959114297337,0.02243517465006142
0.15063780116844766,0.07645112995850549,0.05775434468864452,0.04940953479457739,0.01860299726681465,0.06802984800012617,0.03354860677988862,0.0360686905583898,0.0328458432587212,0.0428808222688542,0.05079796229838466,0.11171868317802369,0.020009740235867282,0.041223944138013884,0.003460913533958011,0.02298031218863116
0.1547691198655637,0.08148861395069537,0.058631498229828806,0.05151016299769437,0.021222170081067145,0.06928091915378694,0.03470616782254087,0.037283087881455367,0.03534906283086742,0.043960806939156605,0.05340082721930167,0.11359613729369299,0.020778136844217428,0.04305829289551635,0.00473531330228763,0.023518107311249117
0.15884203018037588,0.08636744841300766,0.05951596278415594,0.05349753666092263,0.02374000165144,0.07049032394977217,0.03582369983312333,0.03848316452142535,0.03780778063807535,0.0450112072070227,0.05593416744232393,0.11548489950533553,0.02153885216326785,0.04484827908926234,0.006030346601274104,0.02404879821091555
0.1628556636055596,0.09108550599495777,0.06040681528905032,0.0553714532387514,0.02615598534592652,0.07165678568227034,0.03690028796336157,0.039668012851404234,0.04022128941236121,0.04603129168268527,0.058397134716604904,0.11738466443080832,0.02229147112861845,0.0465926299201686,0.007347241752138429,0.024572607041343942
0.16680937916729494,0.09564118947397217,0.06130313842425073,0.05713210749130714,0.028469835370435546,0.07277896444835177,0.03793505834800258,0.040836787637774964,0.04258905314313748,0.047020431174186646,0.060789176987403,0.119295171478741,0.023035584780291763,0.04829017819186188,0.00868726490581153,0.025089747045931098
0.17070284063642105,0.10003350558141505,0.062204015467778415,0.05878014475579621,0.030681539611478698,0.07385543775198658,0.03892720962762473,0.0419887099416875,0.04491070387547841,0.04797806257544466,0.06311000763656113,0.12121621293089602,0.023770805441470606,0.0499399030359079,0.010051714843058727,0.02560044873218465
0.17453606366682306,0.10426210239644355,0.06310852015077627,0.0603166870508814,0.032791396699328214,0.07488473417077933,0.039876039941501094,0.043123062624669715,0.04718602987703201,0.04890364159232277,0.06535955852452223,0.12314763349159671,0.024496779707544214,0.051540963200032874,0.011441915597217713,0.026104990059955025
0.1783094310912464,0.1083272680572571,0.06401570110716781,0.06174333066069877,0.03480003657327456,0.07586539939701017,0.04078096810195807,0.0442391771488807,0.049414956035532705,0.04979659459386895,0.06753791970598723,0.1250893218022275,0.025213198532992517,0.05309272108263209,0.012859207676839918,0.026603722230744496
0.18202367644138884,0.11222989058554317,0.0649245607022132,0.06306211548293268,0.036708424627617975,0.07679606524002913,0.04164154780561159,0.04533641187131971,0.051597517467574086,0.05065629597747312,0.06964526916241841,0.1270411942098072,0.025919803814951747,0.05459475603347496,0.014304938677327789,0.027097088776723094
0.18567983762027182,0.11597138072377032,0.06583402911671332,0.06427546810963018,0.03851785022565372,0.07767550940499761,0.042457473949907704,0.046414122559504375,0.05373382738568675,0.05148208923652945,0.0716817966449902,0.12900317083826057,0.026616391010242192,0.05604686586162464,0.01578045403504232,0.02758563703533489
0.1892791844185749,0.11955356170291737,0.0667429405810559,0.06538612221154728,0.040229900968097365,0.07850270263204698,0.04322858040112364,0.04747162973402673,0.055824040299496565,0.05227333648407612,0.07364763528043443,0.13097514380719835,0.027302807481201053,0.05744905597918665,0.01728708859927355,0.028070021550212734
0.19282312509936808,0.12297853164133878,0.06765002650712587,0.06639702118148719,0.04184642458005616,0.07927684047941741,0.043954828891964955,0.0485081966697509,0.0578683116324139,0.05302947045574979,0.07554283014612442,0.13295693733308148,0.027978946438364932,0.05880151614105103,0.01882615958208035,0.02855099939838833
0.19631309844427133,0.12624850568933427,0.06855393389358651,0.06731120903517385,0.0433694806302239,0.07999735787518691,0.04463628909817036,0.049523032719559594,0.05986675612596406,0.053750037409928654,0.07736735938757035,0.1349482594809261,0.028644736528553084,0.0601045852900423,0.020398961299660665,0.029029417880338644
0.19975045833772467,0.129365663589122,0.06945326047121592,0.06813172870957415,0.044801284518304285,0.08066392548741137,0.045273110336377764,0.050515320331268834,0.06181941376270177,0.054434727669678815,0.07912118571186456,0.13694864921977476,0.029300127299117466,0.061358705554592136,0.022006761947515777,0.029506195400459744
0.20313635870385793,0.13233206562025623,0.07034659401774233,0.06886157106110653,0.04614414626973044,0.0812764279158205,0.04586548572153103,0.05148425102700969,0.0637262379788092,0.05508339140857524,0.08080430846857196,0.1389574357546373,0.02994507094722876,0.06256436694159341,0.023650802461464997,0.029982296693583484
0.20647165618326238,0.13514968305497144,0.07123255042095601,0.06950370062174344,0.047400406879873375,0.0818349246390628,0.04641361011122393,0.052429059056998864,0.06558711121318249,0.055696038142616956,0.08241680579924339,0.1409737355121196,0.030579501653251132,0.0637220476845616,0.025332297316382518,0.03045870380480294
0.20975686146348255,0.1378205085343305,0.07210980848377917,0.07006112702029878,0.04857238211866837,0.08233959551640768,0.04691763995791036,0.05334904858082034,0.06740187548932956,0.05627281936982972,0.08395886601192361,0.14299649321529528,0.031203317819042026,0.06483216718166057,0.027052436916139375,0.030936386620442943
0.21299215007232736,0.14034667908747195,0.07297713940738648,0.07053697554368435,0.04966233629986288,0.08279067340519408,0.04737767566762418,0.05424361254428941,0.06917036418115728,0.0568139948487731,0.0854308079640781,0.1450245470551514,0.03181637673770134,0.06589507667319504,0.02881239104544575,0.03141628275807685
0.21617740104796823,0.14273057852850785,0.07383342893394303,0.07093453837687473,0.05067249823945352,0.08318837024366606,0.04779377982404169,0.055112241882636775,0.07089243010746658,0.057319884073485365,0.08683309079556827,0.14705669648794478,0.03241850571091341,0.06691109398249603,0.030613312701751716,0.03189929690029525
0.21931222824540086,0.14497491220531575,0.074677690283351,0.07125730459029134,0.05160510160038112,0.08353281714658646,0.04816601823747488,0.05595452422895796,0.07256796903585314,0.05779080899422842,0.0881663138058631,0.14909176274601568,0.03300952261624872,0.06788056113030355,0.03245634151702421,0.03238631766607384
0.22239599503240853,0.14708275198286155,0.07550906627605432,0.0715089691861374,0.05246242566462466,0.08382405026825344,0.04849450342757021,0.056770131904408105,0.07419693779427552,0.05822704783944018,0.08943120759149562,0.15112863643193097,0.03358925726641143,0.0688039027864717,0.03434260592703931,0.032878240326797356
0.22542781570162038,0.14905755100411683,0.07632681938760677,0.07169342290441194,0.05324682810498317,0.08406205154605056,0.04877943215493789,0.057558799575063796,0.07577936633870398,0.058628828429783154,0.09062861774062513,0.15316630653631652,0.03415757012049763,0.06968167773614826,0.03627322325918682,0.0333759866401204
0.22840654814658576,0.15090312932319502,0.07713030891864585,0.07181472563146206,0.05396076906426364,0.08424681725703033,0.04902111492444661,0.05832029254145114,0.07731536330189204,0.05899636749796598,0.09175948242611597,0.15520386590564592,0.03471436731243886,0.07051462149372513,0.03824929699485557,0.033880519207955886
0.23133078304939772,0.15262363286650799,0.0779189549772389,0.0718770670823656,0.05460682623057398,0.0843784249603221,0.04921999571931497,0.05905436714499528,0.07880511474212085,0.05932993175338251,0.09282480516394058,0.15724048964212006,0.035259611077624896,0.07130367852489938,0.040271910621041976,0.03439284985583368
0.2341988349522599,0.15422346928667163,0.0786921895572479,0.07188471890970115,0.05518770096616662,0.08445708807180724,0.049376660696414665,0.05976072949095346,0.08024887601092522,0.05962989523296204,0.0938256238363297,0.1592753850685376,0.03579332483202633,0.07205002286946667,0.042342117713738296,0.034914041867140366
0.237008740134713,0.1557072250903937,0.07944940017697716,0.0718419825240397,0.05570621588913208,0.08448319562190806,0.04949183515932628,0.060439009465112555,0.08164695685465129,0.05989678281318607,0.0947629768510367,0.161307714525911,0.03631559238421329,0.07275506628485827,0.04446092818142291,0.035445206233780314
0.23975826524049998,0.15707956892788427,0.08018988730109063,0.07175313672255668,0.05616530460945038,0.08445733552428722,0.04956636879195162,0.061088766252771966,0.08299970004715125,0.06013129660683776,0.0956378670539178,0.16333650225817686,0.036826551029476275,0.07342045335748908,0.04662929205402693,0.03598749238784105
0.2424449291854391,0.15834514613122588,0.08091286512646582,0.07162238980788739,0.05656799457330907,0.08438030053561768,0.04960120983525374,0.061709520988311846,0.08430745401379539,0.060334323137948516,0.09645122376628372,0.16536056187126583,0.03732637857263767,0.07404804337168537,0.04884808611847632,0.03654207414373904
0.2450660391573632,0.15950847276759456,0.08161751180622125,0.07145384433956493,0.05691738416543807,0.08425307696628354,0.04959736956951566,0.062300798317115554,0.08557054004761844,0.060506920551888964,0.09720386315095458,0.16737849067619817,0.03781527463582551,0.07463987910503293,0.051118110453027624,0.03711013179775328
0.2476187396426387,0.160573852139035,0.08230304530132451,0.071251483555991,0.05721661535553849,0.08407681706059059,0.04955587907033844,0.06286216459285693,0.08678921483744229,0.06065028656570975,0.09789645243472901,0.16938873554816014,0.038293436913024816,0.07519814315171645,0.05344009596504849,0.03769283149599714
0.2501000715460446,0.1615453483763931,0.08296880077043224,0.07101917750539781,0.05746884325178551,0.08385279675715185,0.04947774469552916,0.06339325892819597,0.08796363141428683,0.060765709278461616,0.0985294944145586,0.17138968721060494,0.03876103512845118,0.07572510286818823,0.05581471697575303,0.038291303565690785
0.25250703677918723,0.16242682503229994,0.08361429933308435,0.07076069455897643,0.05767720394348054,0.08358236122483038,0.04936391920200023,0.06389381576428799,0.08909380967904354,0.06085450422514153,0.09910334378139786,0.17337976226077204,0.039218191531733816,0.07622304557863653,0.058242602983671114,0.03890662434131546
0.2548366623340657,0.1632220149309592,0.08423930343889799,0.07047970668114634,0.05784478197821637,0.08326686111332045,0.049215304987518985,0.06436367810365362,0.09017963225113887,0.060917951714973766,0.09961824554557287,0.17535745699385236,0.03966497936374722,0.07669421301259759,0.060724347066781086,0.03953980878186248
0.25708605696699244,0.16393458670273547,0.08484385448025006,0.07017978635697064,0.05797458175486893,0.08290758811574292,0.04903278522425973,0.06480280104908628,0.09122086872463042,0.060957267774549545,0.1000743798163948,0.17732136767565357,0.040101440607997384,0.07714076097564901,0.0632605097721334,0.04019181600105437
0.2592524532945511,0.16456819724103677,0.08542828907787144,0.06986439697754449,0.05806951288624841,0.0825057325444747,0.048817263400415034,0.06521124577290617,0.09221721497760275,0.06097362985956547,0.10047190694992437,0.17927017425361286,0.04052761256498059,0.07756476914144687,0.06585161764330953,0.04086356065268292
0.26133322840552053,0.16512652959516985,0.08599323162371345,0.06953688079227967,0.058132395574499826,0.08206238609008673,0.04856969744735489,0.06558916447394621,0.09316833450208194,0.06096823573863525,0.1008110118344356,0.18120258694455865,0.04094355344347885,0.07796829359088266,0.06849815592163787,0.04155592240994996
0.263325897027524,0.16561331644082716,0.08653956212146878,0.0692004524391601,0.05816597826971838,0.08157858510503187,0.04829112427499238,0.06593677723973847,0.09407389721567926,0.060942361902474006,0.10109194568909244,0.18311725765712777,0.04134936328593426,0.07835343310308002,0.07120055538965675,0.04226975090991889
0.265228072805183,0.166032349795433,0.08706836002391023,0.06885820336056704,0.05817295606387278,0.08105536760594703,0.04798267370282431,0.06625434200447948,0.09493361443212754,0.06089740762473591,0.1013150634164398,0.18501267345977962,0.04174519893903093,0.07872238959761688,0.07395917376327811,0.04300586597753744
0.26703739524182346,0.16638747806029802,0.08758082649657031,0.06851311278404965,0.05815598527064524,0.08049382424602906,0.04764557146348549,0.066542118976117,0.09574726863938436,0.060834921973545966,0.10148085432779791,0.18688708470620585,0.04213128204722127,0.07907751639227868,0.07677427244178878,0.04376505328981985
0.2687514221721704,0.16668259177579722,0.08807819122349717,0.06816805734559615,0.058117693955993054,0.07989513731767621,0.04728113164389022,0.06680033100350405,0.09651473674150372,0.06075661250828995,0.10158996399738225,0.18873852375115205,0.04250789937933495,0.0794213517244422,0.0796459923755597,0.04454805598906852
0.2703674930401823,0.16692159967702944,0.0885616275558041,0.06782581543141818,0.05806068874987894,0.07926060641182324,0.046890739568377096,0.067029125282646,0.09723600547764341,0.06066433576222776,0.10164320512544667,0.19056490803766646,0.04287539518539432,0.07975663579454287,0.08257433859038223,0.04535556308191378
0.27188259884925126,0.16710839674783684,0.0890322221032423,0.06748906541231735,0.057987558457790134,0.07859166006722222,0.04647582667534648,0.06722855087735467,0.0979111778513594,0.06056007091465816,0.10164155561377805,0.19236417010418452,0.043234155709931436,0.08008631055166096,0.08555918070787284,0.046188196220101986
0.27329333880756423,0.16724682600511537,0.08949102095560259,0.06716037799839239,0.05790087510250514,0.07788985346883227,0.04603783935806689,0.06739856481467475,0.09854046959559866,0.06044587919632266,0.10158614257021097,0.1941343679091813,0.04358458644376626,0.08041350249448884,0.08860026491440817,0.04704649846918944
0.2745960112033054,0.16734063571725802,0.08993911852454839,0.06684220639659287,0.05780319305039409,0.07715685296503554,0.045578204184526266,0.06753906134763159,0.09912419496809637,0.06032385246670591,0.10147821163722152,0.1958737549579736,0.04392708315652685,0.08074148983937887,0.09169722763679619,0.04793092954870534
0.27578679078048934,0.16739343368235304,0.09037774429848691,0.06653688349040421,0.05769704681317582,0.07639440883240876,0.04509829651165688,0.0676499085707221,0.09966274151644769,0.0601960585673684,0.10131908184351861,0.19758079953014998,0.04426200177500065,0.0810736564357164,0.09484960575133156,0.048841867774497616
0.27686192070829835,0.16740864007244918,0.09080833001374809,0.06624663257655945,0.05758494797896096,0.0756043182866744,0.044599426956179536,0.0677309829424999,0.10015653386398013,0.060064501810527075,0.10111008705527046,0.1992541466031463,0.04458964067806337,0.08141343570284715,0.09805684180454567,0.04977961353511352
0.2778178889569083,0.16738944019656218,0.09123255364235147,0.06597358742363625,0.05746938153968278,0.074788381182298,0.04408285315082265,0.06778219933067679,0.10060598703326366,0.05993111886950959,0.10085250762984305,0.2008925216702263,0.04491024709949449,0.08176424853293322,0.1013182834189482,0.05074438933516381
0.27865158021994485,0.16733874209450555,0.09165235834718166,0.06571981373788291,0.057352801676517344,0.07394835112908373,0.043549805319489106,0.06780353582030114,0.10101145032540142,0.059797808583906466,0.10054750930135868,0.20249458949867813,0.045224042455636826,0.08212944339338447,0.10463317633189044,0.05173633492566811
0.2793603956107299,0.1672591521941817,0.09206994638300608,0.06548732827582797,0.05723762687307495,0.07308589083833657,0.0430015104966724,0.06779505265491517,0.10137315176226996,0.05966647322182898,0.10019612364932601,0.20405882276753806,0.045531251990428324,0.08251225646252824,0.10800065079717981,0.052755500121777106
0.2799423337753217,0.16715297992653957,0.09248774966268244,0.06527811431868327,0.05712623407702011,0.0722025517954016,0.04243921001800011,0.06775690481473577,0.10169117142267162,0.05953905282646307,0.09979928742724763,0.20558347206081873,0.045832129744765436,0.08291580726364468,0.11141970136002907,0.053801842422800644
0.2803960287327102,0.1670222645618003,0.09290838021395685,0.06509413259401953,0.05702095154624643,0.07129979000496008,0.04186416991690114,0.06768934787953997,0.10196546542824982,0.059417547223359485,0.09935791641597198,0.20706667160663425,0.04612697596312905,0.08334312227446004,0.11488916029358978,0.054875234816471954
0.28072074160672067,0.16686880844697993,0.09333456490954352,0.0649373271488693,0.056924050008411595,0.07037900289880118,0.04127768433065476,0.06759273698068463,0.10219592661409438,0.0593040253532149,0.09887298107945554,0.20850661131987203,0.046416145673195366,0.08379716361249806,0.11840766931612387,0.055975481175515096
0.28091630539977974,0.16669420800819035,0.09376906959531409,0.06480962610370075,0.056837731834771595,0.06944156605443016,0.040681072438165135,0.06746751881792751,0.10238245395597018,0.05920062254868447,0.09834557085713742,0.2099016900682625,0.046700047763768994,0.08428084802248759,0.12197366318962084,0.057102333402607196
0.2809830240222389,0.16649988106732785,0.09421461969355842,0.06471293761067105,0.05676411807276276,0.06848886179756719,0.040075669798394165,0.0673142169012549,0.10252501720140356,0.05910952720175808,0.09777694366468802,0.21125061326975555,0.04697913454462427,0.08479705350784256,0.12558537632456243,0.058255506841493665
0.2809215288726203,0.16628709060540245,0.0946738343158699,0.06464914167028521,0.056705235451301725,0.06752229903951391,0.039462815216638185,0.06713341037207844,0.10262371279682053,0.05903295891298029,0.09716855800725646,0.21255242365377333,0.047253882447269684,0.08534861513743773,0.12924086708506222,0.059434691946780624
0.28073259829027936,0.16605696517596297,0.09514920074824214,0.06462007870446065,0.05666301019324603,0.06654332437523729,0.038843834427533704,0.06692570695603646,0.10267880824157047,0.05897314063703928,0.09652208613154845,0.21380646086098332,0.04752476516109926,0.08593831248369127,0.1329380476168211,0.0606395604184198
0.28041694707991266,0.16581051619358733,0.09564309697323806,0.06462753592766257,0.05663927429446461,0.06555342494354623,0.03822002194764165,0.06669171079374464,0.10269077244816799,0.05893226752367797,0.09583940777953652,0.2150122527551577,0.04779222263188505,0.08656885174653918,0.13667471309667165,0.061869764403179824
0.27997502246576234,0.1655486522945798,0.09615783609186303,0.06467323259896532,0.056635781276254404,0.06455412393988853,0.03759262359437732,0.06643198607803928,0.10266029031033524,0.05891247510240713,0.09512258527106106,0.21616934805507512,0.04805663588619345,0.08724284584332882,0.14044856832530334,0.0631249279068005
0.2794069014542244,0.16527219089372505,0.09669570438705051,0.06475880518504343,0.05665422453158912,0.06354696995853165,0.036962825131470915,0.06614702126256529,0.10258826044455475,0.05891581187508324,0.09437382174582438,0.21727713471121987,0.048318321691881834,0.08796279559719358,0.14425724981847124,0.06440463019314797
0.27871235971831776,0.16498186694951833,0.09725898430974281,0.06488579333430988,0.05669625456711088,0.06253352151651709,0.03633175220587763,0.0658372077150128,0.1024757759287579,0.05894422555835258,0.09359540535436969,0.21833475013785136,0.048577550041083786,0.0887310746773127,0.14809834157685456,0.06570838172289756
0.27789106059671276,0.164678338811343,0.09784996287846208,0.06505562737763111,0.05676349384797479,0.06151532817798709,0.035700479852941225,0.06550284609117113,0.10232408875271232,0.058999566704459674,0.09278964293452971,0.21934115583262095,0.04883457191883105,0.08954992020464633,0.15196938281809078,0.06703559854917879
0.27694276567274784,0.16436219086914564,0.09847092708232733,0.06526961823384643,0.0568575482848742,0.06049390966385908,0.035070044594895454,0.06514417644721544,0.10213455955148025,0.059083600518544416,0.09195878963613786,0.2202953158605355,0.04908964445892296,0.0904214300253853,0.15586786614059034,0.06838559060790271
0.27586751942788296,0.1640339325750524,0.09912414874966914,0.06552895112058864,0.05698001455717474,0.0594707342152699,0.03444145427382801,0.06476141671559975,0.1019085949509249,0.059198016071708555,0.09110499245573554,0.22119637282579682,0.04934304877645963,0.09134756666958138,0.15979122485930122,0.06975757472504157
0.2746657969503935,0.16369399327417822,0.09981186190854895,0.06583468360047424,0.057132482699189045,0.058447197302010895,0.03381569454863319,0.06435479943198272,0.10164757545878886,0.05934442987114959,0.09023027479237042,0.22204377106249615,0.04959509944149962,0.09233016705449942,0.16373680860707732,0.07115070424496517
0.2733386094704281,0.16334271218596538,0.10053623587636124,0.06618774609164789,0.057316533670843925,0.05742460307606185,0.03319373227399504,0.0639246037361802,0.10135278503559443,0.059524384657464346,0.0893365687929869,0.22283731358176095,0.0498461451362692,0.09337095615694264,0.16770184672532884,0.07256410111431963
0.2718875648613282,0.16298032283415156,0.10129934717283891,0.06658894221751498,0.05753373196681673,0.05640415419578829,0.03257651615662652,0.06347118154157713,0.10102537116585522,0.05973934467710311,0.08842577004181676,0.22357714669793038,0.05009656061873607,0.09447156225004996,0.17168339946152367,0.07399688412379454
0.27031488263252534,0.16260693124694173,0.10210315289774999,0.06703894793644077,0.057785613663623225,0.05538695438474966,0.03196497520264323,0.06299497696645089,0.1006663593252617,0.059990688863570514,0.08749978777034656,0.22426367263847072,0.05034673065902785,0.09563353094205473,0.17567830026406095,0.07544819141467092
0.26862336516506236,0.16222248734948855,0.10294946752932935,0.06753830976539357,0.05807367063343669,0.05437402040334257,0.03136001552615828,0.06249653836375816,0.10027670930831345,0.060279703389078385,0.08656058157246699,0.22489739696902653,0.05059702708913515,0.09685833520474453,0.1796831057262016,0.07691719574732121
0.2668163288685104,0.16182674915406167,0.10383994427986257,0.06808744275869501,0.05839933193632366,0.05336629618330026,0.030762516085422433,0.0619765225645041,0.09985738196179311,0.06060757493502119,0.08561018361622534,0.2254787415284734,0.05084778099991776,0.09814737884425308,0.18369408254456185,0.07840311149797119
0.26489750047601957,0.1614192412518962,0.10477606129363706,0.06868662892073366,0.0587639442806038,0.05236466517790361,0.030173323857703733,0.06143569125260109,0.09940939835602425,0.06097538580280295,0.08465070619005535,0.22600790797578665,0.05109925711050752,0.09950199142056428,0.1877072444137225,0.07990519285179443
0.26287088479778864,0.16099921906053463,0.10575911218550205,0.0693360167073797,0.059168756331212956,0.051369960385791315,0.029593248871313496,0.060874899702458,0.09893388683875447,0.061384111679933365,0.08368433522359774,0.22648488621146923,0.0513516440709504,0.10092341340890698,0.1917184200804801,0.08142272314982744
0.26074061091985906,0.16056566225667704,0.10679019977666296,0.07003562220796081,0.059614913421981386,0.050382972317939374,0.02902305939970799,0.06029507841889815,0.09843211651436641,0.061834622524276184,0.08271331114040423,0.22690960359979326,0.05160506765830759,0.10241277133535559,0.19572332891485192,0.08295499578662492
0.25851076409635226,0.16011730970441374,0.10787023145093347,0.07078533250119792,0.06010346361263552,0.049404455219829786,0.028463477506121465,0.05969720850619136,0.09790551636352468,0.06232768666344673,0.08173989899756924,0.22728211966612408,0.05185961704757551,0.10397104681714335,0.19971765445927786,0.08450128741917096
0.2561852170667577,0.15965272162811386,0.1089999143730123,0.07158491154722209,0.06063536823266361,0.04843513187124958,0.027915175116778834,0.059082291843466764,0.09735567990905009,0.06286397785404545,0.0807663503189964,0.22760278668537584,0.05211537095442549,0.10559905352590068,0.20369711266606128,0.08606082452294868
0.2537675014393183,0.15917034934654503,0.11017974956534787,0.07243400881593692,0.061211510260105205,0.04747569726631859,0.02737877130259049,0.05845131734397704,0.09678435601211156,0.06344408473007368,0.07979485931793069,0.22787234787057567,0.05237241852157098,0.10729743898508337,0.2076575115235499,0.08763274451816881
0.2512607788677624,0.1586686045157327,0.11141002676406145,0.07333217066143523,0.061832698584984566,0.04652682142860705,0.026854832060298917,0.057805225638572405,0.09619342701558886,0.06406852181124088,0.07882752103646223,0.22809196627991263,0.052630873912698474,0.10906671219193198,0.2115947988706051,0.08921605835785777
0.24866792402799925,0.15814592511323744,0.11269082476805294,0.07427885423524584,0.062499668356045424,0.04558915154419718,0.026343872994705878,0.05714488012591324,0.09558487600488044,0.06473774105567323,0.0778663088526287,0.2282631843352009,0.05289088396654186,0.11090728217343125,0.21550509539902146,0.0908096326349328
0.24599166161475142,0.15760083515729173,0.11402201980032209,0.07527344349245327,0.06321307797769918,0.0446633135050475,0.025846363580525916,0.05647105836850125,0.09496074539888849,0.06545214283841112,0.0769130841094485,0.22838782021172288,0.053152628659836415,0.11281949422125917,0.21938471013799424,0.09241220353676634
0.2432346994837327,0.15703199505216206,0.11540329938262654,0.07631526659336337,0.06397350361366778,0.043749912854735507,0.025362731573878337,0.055784469002839634,0.09432308938953866,0.06621208522132047,0.07596962809148275,0.22846781258636584,0.053416314504506054,0.1148036583187452,0.2232301361005817,0.09402241204967579
0.240399839433671,0.15643823951257232,0.11683417752941407,0.07740361375498477,0.06478143223278891,0.042849535030310165,0.024893367133444394,0.05508578219241901,0.09367392290023523,0.06701789044884822,0.07503767684012361,0.22850503411034417,0.05368216133896376,0.11686006726716183,0.22703802425127012,0.0956388432654077
0.23749006357948793,0.15581860026461958,0.11831400800003333,0.0785377543835806,0.06563725428494435,0.04196274471131485,0.024438626615911264,0.05437565975254185,0.09301517004635543,0.06786984774800683,0.07411894866124571,0.22850112710103102,0.05395038324900058,0.11898900271531507,0.23080513453161766,0.09726006314845624
0.23450859512389752,0.15517231115832045,0.11984199271232608,0.07971695214953137,0.06654125702150548,0.041090084033627516,0.023998835984949153,0.053654780147311294,0.09234862056798232,0.06876821171576859,0.07321516205892174,0.22845744791796993,0.05422116456012663,0.1211907280934917,0.23452826336379068,0.09888465158218679
0.23145893315852642,0.15449879395545765,0.12141718246425413,0.08094047657771346,0.06749361928857238,0.040232069412294756,0.023574293762505034,0.05292385775206248,0.0916759112002274,0.06971319582600613,0.07232804350867506,0.2283751518835107,0.054494633225468526,0.12346546828311898,0.23820414784261978,0.10051123056896577
0.22834486190816122,0.15379762385898585,0.12303846760319244,0.08220760974535148,0.06849440834486947,0.03938918674941053,0.023165273457916784,0.05218365605841144,0.09099853944688287,0.07070496086459385,0.07145932500787046,0.22825534861486588,0.05477083931367035,0.12581337665736061,0.24182934772016482,0.10213848651761463
0.22517043556429034,0.1530684747943806,0.12470455728349299,0.08351764681942635,0.06954357891737806,0.03856188487924444,0.022772025431664192,0.05143499478503588,0.09031789427413536,0.07174359839013952,0.07061073187641848,0.2280992459713018,0.055049750611044994,0.12823449085543934,0.2454001246039019,0.10376518562406299
0.22193994052790322,0.15231104549072352,0.12641395347901024,0.08486988942683855,0.07064097433892304,0.037750567215995054,0.022394778179858677,0.05067875113058076,0.0896352849396496,0.07282910960529906,0.0697839618092972,0.227908254322431,0.055331269118638685,0.13072868292795367,0.24891237762104537,0.10539018144689004
0.2186578374868722,0.15152496847776273,0.12816494005304796,0.08626363121585533,0.07178632924878904,0.036955582273613036,0.022033739054579414,0.04991585565210664,0.08895196206336219,0.07396138325989722,0.0689806566760244,0.22768404870912595,0.05561525896202168,0.13329562136344725,0.2523616870226034,0.10701241390386106
0.21532868627919766,0.15070971781608586,0.1299556032940227,0.08769813540613827,0.0729792730173759,0.03617721631087747,0.021689094456912,0.04914728346087169,0.08826913132776476,0.07514018304018336,0.06820237228506136,0.22742858946561215,0.055901575269561306,0.13593476707142038,0.25574344469300897,0.10863089906959436
0.21195705692776917,0.1498645604977421,0.13178387575021308,0.0891726045971487,0.07421933281450865,0.03541569352978856,0.02136100955033674,0.04837404158635152,0.08758796065645402,0.07636515337136514,0.06745055973315182,0.2271441043450367,0.05619009019633523,0.13864540574033207,0.2590530146763856,0.11024470933651918
0.2085474305625933,0.1489885895323154,0.13364758519546227,0.09068614403099083,0.07550593510827922,0.034671185699678815,0.021049627541848862,0.04759715346139785,0.08690958207164882,0.077635839756829,0.06672657128949248,0.22683303706664043,0.05648071506441826,0.1414266971490719,0.2622858921790625,0.11185294370990836
0.20510409416158434,0.14808082088082097,0.13554449892158857,0.09223772637105175,0.07683840437823308,0.03394382703739948,0.02075506856928028,0.0468176415218326,0.08623508964798787,0.07895171341239408,0.0660316872813711,0.22649796846162795,0.05677341762368692,0.1442777236707543,0.2654378509135409,0.11345468824373231
0.20163104616981853,0.1471403083962549,0.13747235857383497,0.09382617707325486,0.07821595796318667,0.03323372957544512,0.020477428219006836,0.04603650889199883,0.0855655350471635,0.0803121944694545,0.0653671490727183,0.22614151705515162,0.05706823349419845,0.1471975315365258,0.26850507162010345,0.11504896689047507
0.1981319554789143,0.1461662509035593,0.13942890109585548,0.09545019232670564,0.07963769623816717,0.03254099715513534,0.020216775681456405,0.04525472104780079,0.08490192203605257,0.08171667202001216,0.06473418790388591,0.2257662260275072,0.05736527094564976,0.15018516274635205,0.27148424483288564,0.116634685996254
0.1946102002381163,0.14515808370194003,0.1414118620462209,0.09710837834422154,0.08110258901624934,0.03186573746207737,0.01997315153487567,0.04447318821927343,0.08424520117564072,0.08316452003794741,0.06413404650507581,0.2253744431146162,0.05766470831223785,0.15323967595893764,0.2743726415556834,0.11821058817530755
0.19106895607323854,0.1441155503409808,0.1434189585544859,0.09879929463979849,0.08260946401976335,0.031208071600564817,0.01974656513310747,0.04369275054288423,0.08359626554957646,0.084655108440057,0.06356799269164488,0.22496821122532884,0.057966783539213154,0.1563601551857486,0.2771681464826599,0.11977524311778673
0.18751128785033047,0.14303875145901107,0.1454478504525464,0.1005214942889453,0.08415700640088683,0.03056814080910844,0.019536991817682252,0.04291417070857673,0.08295594802099196,0.0861878088066566,0.06303732475783984,0.22454921138671532,0.058271775613611965,0.1595457056231088,0.27986924972252486,0.12132708669704662
0.18394022675696065,0.14192816857694812,0.1474960795762977,0.10227355948700659,0.08574377208783776,0.02994611004282136,0.01934437103716835,0.04213813718318008,0.08232502011078902,0.08776199454179576,0.06254336906451598,0.22411878685619754,0.058579977945581375,0.16279543644811006,0.2824749946217368,0.12286448957520604
0.1803588298938317,0.1407846619436226,0.1495610015449703,0.10405413089057117,0.08736820878384037,0.029342168283237064,0.019168606977233764,0.04136527445944295,0.0817041922252751,0.08937703549787825,0.062087470708939545,0.22367802300389206,0.058891664133457006,0.1661084308466484,0.2849848811707478,0.12438583240311057
0.1767702207887152,0.13960944275641804,0.15163975323159176,0.10586192942611948,0.08902867740066751,0.028756525577129023,0.01900957210293876,0.04059615448215676,0.0810941146640862,0.09103228730493208,0.061670978524948836,0.22322783805700044,0.05920705158930309,0.16948370391029505,0.28739872653317844,0.1258895784443992
0.1731776100153111,0.13840402126283158,0.1537292915663092,0.1076957694683766,0.0907234700291037,0.028189406948461605,0.018867112423420908,0.03983130673309035,0.08049537863710893,0.09272707582332897,0.06129522586135657,0.22276906475616476,0.05952628014357301,0.17292014932117258,0.28971648635616204,0.12737434030247932
0.16958429595664914,0.13717013331989128,0.1558264868954481,0.1095545625254032,0.09245082190473382,0.027641043467141097,0.018741053271237266,0.03907122690081892,0.07990851642391679,0.0944606772783097,0.06096150861912042,0.2223025204796208,0.05984942234716666,0.1764164759462636,0.2919380425794882,0.1288389372214497
0.16599364665677518,0.13590964889575233,0.15792823126299693,0.11143731082071083,0.09420891499094265,0.027111660889999764,0.018631205118650317,0.03831638443207953,0.07933399981999513,0.09623229473695587,0.06067106190938753,0.22182906548487838,0.06017652154316626,0.17997114266293013,0.2940629948310577,0.13028243939779408
0.16240906460139434,0.13462446670156525,0.16003154050129414,0.1133430904399959,0.09599587122572135,0.026601466408527927,0.01853736919579195,0.03756722923154392,0.07877223611883329,0.09804103165645782,0.060425037451086794,0.22134964863046247,0.06050764020519036,0.18358231734289124,0.2960905558626498,0.1317041959196608
0.15883393709623683,0.1333164066552747,0.16213364192902457,0.1152710240166914,0.09780973416313367,0.026110635476811746,0.018459342635847416,0.03682419770745881,0.07822356105827635,0.09988586326916478,0.06022448714492728,0.22086533952589724,0.060842906690456854,0.18724788603051823,0.2980196268188377,0.13310384337063835
0.15527157561086913,0.13198713388614305,0.16423204079653014,0.11722024326832056,0.0996484386523426,0.025639304006405964,0.01839692285447277,0.036087718261998684,0.0776882283894581,0.10176560834936046,0.06007036004866155,0.22037734566016387,0.06118255604649778,0.1909655075021642,0.2998490008642263,0.13448129280187684
0.15172514797405476,0.13063815511430088,0.16632455948934843,0.1191898420603653,0.10150977578192057,0.02518757081997731,0.018349910878059573,0.03535821621059258,0.0771663959819053,0.10367890894959238,0.0599635135736868,0.21988701280560538,0.06152696231895513,0.19473268747415393,0.30157759400332,0.13583669367560494
0.14819761425174102,0.12927088802684572,0.1684093448105608,0.12117882105429979,0.1033913752860105,0.02475550859496333,0.01831811336817111,0.03463611799856938,0.07665810863485228,0.10562422675126082,0.05990473170084523,0.21939580698703137,0.06187666007698585,0.1985468552654327,0.30320465424799253,0.1371703744783316
0.14469169181525668,0.12788676180159073,0.17048484035526595,0.12318603091761883,0.10529072358870822,0.024343177144438236,0.01830134314439086,0.0339218544811971,0.07616328114236055,0.10759985546720381,0.05989474374230009,0.21890527661448625,0.06223235330463644,0.2024054373621647,0.3047299367377207,0.13848276093674405
0.14120986937255603,0.12648731282508452,0.17254972297713048,0.1252101355461029,0.10720520847897334,0.023950634946757973,0.01829941807954537,0.0332158629585988,0.07568169174833683,0.10960394031305966,0.05993424202107659,0.21841699403424927,0.06259491038553497,0.20630592479926596,0.3061538374127137,0.13977427406921403
0.13775445644887846,0.1250742642174298,0.17460280450494187,0.12724961736634413,0.1091321694568117,0.023577947714683734,0.018312158323090303,0.0325185876219572,0.07521299331895458,0.11163449762700103,0.06002389860268636,0.21793247673706664,0.0629653446095612,0.21024593093815747,0.30747747989504814,0.14104522479780657
0.13432763807894438,0.1236495869265279,0.17664290205003005,0.12930282088013278,0.11106894219793137,0.023225193654838806,0.018339381893412183,0.03183047808035146,0.07475673677639376,0.11368943290822035,0.06016438106477733,0.21745308969580746,0.06334478042110603,0.21422323598559134,0.308702752544575,0.14229575345522116
0.13093151763173175,0.12221554096903024,0.17866870083141692,0.13136801142827326,0.11301289230074882,0.02289246526709197,0.018380898761522445,0.0311519857024095,0.07431239730220994,0.11576655730338684,0.060356367082798304,0.21697994231918835,0.06373440646908453,0.2182358145254166,0.309832295077046,0.14352585748615276
0.12756814393313362,0.12077469621227044,0.1806786770818985,0.1334434328460403,0.11496143447829939,0.022579867746378535,0.01843650362192332,0.03048355762211037,0.07387939941037497,0.11786360266305053,0.06060055737672073,0.21651382264497487,0.06413541768995083,0.22228184248412736,0.31086943651210175,0.1447354911562259
0.12423952231933683,0.11932993287895946,0.18267113989981032,0.13552735878743372,0.11691203423928222,0.022287514260419288,0.018505968185396945,0.029825628415828982,0.07345714003859843,0.11997823531201633,0.06089768634412265,0.2160552141379958,0.06454895911368685,0.22635968037770177,0.31181808841782865,0.14592468719820093
0.12094761023128457,0.1178844226893833,0.18464436824604866,0.13761813563146685,0.11886219023924921,0.022015518569677678,0.01858903564456185,0.029178609643982178,0.07304500891559805,0.12210806861905683,0.061248529535046746,0.21560438917192476,0.06497610210191032,0.2304678304336811,0.312682599314409,0.14709366964087678
0.11769429888564563,0.11644159221583207,0.18659677481531423,0.1397142151774148,0.12080939678955101,0.021763985615693357,0.018685420604519862,0.028542878262848365,0.07264240556952581,0.12425067431402831,0.06165390703469418,0.21516153241999061,0.06541787230486602,0.23460486626445115,0.3134675775964387,0.14824294794471848
0.11448138337451343,0.11500507059786935,0.18852705596412206,0.14181417568849128,0.12275108739434448,0.02153300081796037,0.018794814700777,0.027918767610734342,0.07224875246379692,0.1264035922971608,0.06211468183231211,0.2147268590622282,0.0658753096914758,0.23876933516112633,0.31417769136731355,0.14937338748551468
0.11131052420454433,0.11357862424509839,0.19043431413994852,0.14391673022654486,0.12468456928600927,0.021322620031524006,0.01891689484924953,0.027306566617521365,0.07186350387400524,0.1285643384366591,0.06263175237719626,0.21430071570409578,0.06634953034134387,0.2429596347084343,0.3148174541168178,0.15048625269610696
0.1081832100031952,0.11216608152827565,0.19231814520483761,0.14602072160751847,0.12660698012803454,0.021132864367908694,0.019051331444966572,0.026706528678750563,0.0714861502477321,0.13073040958282553,0.06320603875064852,0.2138836590518636,0.06684177728101307,0.24717388344419455,0.31539102609892355,0.15158322069022
0.10510074319155406,0.110771250722555,0.19417868482918235,0.1481251036784402,0.1285153000375645,0.02096372247270414,0.019197795600920973,0.026118885233419584,0.07111621791306137,0.13289928476943821,0.06383846219870024,0.21347650843048552,0.06735345707779458,0.251409844719766,0.3159021053615513,0.15266636483739976
0.1020642616658452,0.10939784147833966,0.19601661034408502,0.150228908961213,0.13040641584913476,0.020815157283644987,0.01935596516652038,0.025543858786968177,0.07075326411728208,0.13506842135861907,0.06452991814755404,0.2130803694847979,0.06788615979467436,0.2556649577789707,0.31635396324546156,0.15373810940748697
0.0990747812118905,0.10804941692154768,0.19783309698094362,0.15233120302730904,0.13227720583944252,0.020687112501491765,0.01952552931190325,0.024981673466691223,0.07039686748116514,0.13723524474804533,0.06528124392704959,0.21269662780298929,0.06844166103170272,0.25993645772394885,0.3167495825288745,0.15480115793197588
0.09613323599864766,0.1067294014646839,0.19962973015067853,0.15443102627200367,0.13412462051440135,0.020579516654839484,0.019706191516516803,0.024432562708639752,0.07004661404446098,0.13939713023205583,0.06609318893285035,0.21232691265542333,0.06902190604740628,0.2642215240380189,0.3170918157228998,0.1558583992283485
0.09324050808167698,0.105441134777284,0.2014083781399697,0.1565273240656726,0.13594574998288114,0.020492284475907556,0.01989767085591995,0.023896773885605217,0.06970207915532232,0.141551375718235,0.066966404080356,0.21197303245663437,0.0696289772590671,0.268517420141813,0.31738352271392267,0.15691279601927804
0.09039744441660344,0.104187939389544,0.20317103211845824,0.15861887117625806,0.13773787311268945,0.020425315680644197,0.020099701538077688,0.023374569897165486,0.06936280552326039,0.1436951642648255,0.067901460064512,0.21163688484255008,0.07026504764211242,0.27282161157560775,0.31762768093548666,0.1579672617037613
0.08760486088239226,0.10297318061108804,0.20491962836072128,0.1607042133828131,0.1394984846358548,0.020378491445988443,0.020312030697771342,0.022866227933549393,0.06902827781720396,0.14582551582332778,0.06889888369409117,0.21132034533572971,0.07093232356766284,0.2771318563449226,0.31782746778352644,0.15902454564080754
0.08486353375122875,0.10180031315003933,0.2066558989526066,0.1627816601505205,0.14122529759007113,0.020351669055365954,0.02053441451340863,0.022372035778979626,0.06869789559264042,0.14793923654337185,0.06995919680758877,0.21102514035945616,0.07163298339040258,0.28144626252819793,0.3179863162776318,0.1600871760989373
0.08217417993432985,0.10067291336283916,0.20838132568685186,0.16484933685832506,0.14291621986891392,0.02034467579936668,0.020766612762689,0.021892286127476616,0.06837095212453252,0.15003289335693148,0.07108295135949168,0.2107527303770996,0.07236912745604106,0.2857633100736911,0.31810794594746006,0.16115749289661827
0.07953742827157265,0.09959469673620723,0.2100972215178702,0.16690526947157652,0.14456930511324928,0.02035730456537738,0.02100838198053975,0.021427269441970168,0.06804663160987987,0.15210283815104014,0.07227075879106448,0.21050426260751706,0.07314276152326601,0.2900818356441635,0.31819637153118446,0.1622377374826395
0.07695379054951672,0.09856952087801096,0.21180487593431258,0.1689474734945264,0.14618267961701423,0.020389313517987787,0.021259467422946977,0.02097726589908765,0.06772402895241658,0.15414527225684221,0.07352331198363428,0.21028062855455498,0.07395581765487022,0.2944009812490846,0.31825589229801554,0.1633301487872979
0.07442365170231331,0.09760137493713236,0.2135056927862633,0.17097403631446528,0.1477544482549187,0.020440429369593904,0.021519594072480778,0.020542536934658653,0.06740218256982879,0.15615632608277344,0.07484139836023203,0.21008258622465084,0.07481019045029308,0.2987201091092936,0.31829106468081514,0.16443704342344886
0.07194729092426044,0.0966943569468412,0.21520129557004267,0.17298318877402613,0.14928259383530368,0.020510351334224606,0.021788457743353758,0.020123317114083467,0.06708010952997268,0.1581321402708757,0.07622590303630013,0.20991088875398278,0.07570776636641953,0.30303868663926325,0.31830666050150563,0.1655608770554711
0.06952492081055676,0.0958526410579465,0.21689359705161204,0.1749733617805349,0.1507649115359423,0.020598753539008426,0.022065719371296224,0.019719808132870154,0.06675683906809113,0.16006894340367572,0.07767780130589369,0.2097663970307526,0.07665043910390205,0.30735614655475463,0.318307612499635,0.16670428570893403
0.06715672514256504,0.09508043697010686,0.21858483278546637,0.1769432239923027,0.15219902142405567,0.020705285230790405,0.02235100556023064,0.019332177507105953,0.06643144330983038,0.16196312189153794,0.07919814017442771,0.20965017202707859,0.07764011102387364,0.311671727895372,0.31829894826329647,0.16787010664451701
0.06484288735105075,0.09438194406472852,0.2202775605286529,0.17889169714040967,0.1535824525537044,0.020829568750263962,0.022643914659412623,0.0189605622928599,0.0661030639418904,0.16381127751964886,0.08078800910568859,0.20956354318519382,0.0786786816603397,0.3159843150456785,0.3182857131450202,0.16906137919343234
0.06258360804705279,0.09376130278515978,0.2219746295435379,0.1808179463534746,0.1549127540973182,0.020971195584921935,0.022944024951495088,0.01860507500506864,0.06577093354407079,0.16561026823250224,0.08244850063542368,0.20950814989832364,0.0797680253533406,0.32029232371867283,0.3182728824368318,0.17028132663045673
0.06037911098290401,0.09322254726542192,0.22367912517595515,0.1827213439259287,0.1561876007993952,0.021129722093998063,0.023250902634370286,0.018265809013545697,0.06543439034568313,0.16735722811054837,0.08418066200977205,0.2094859538996264,0.08090996078901111,0.32459369060844795,0.31826526305162706,0.17153332073448915
0.05822963782914845,0.09276956946414742,0.22539429480886256,0.18460140625315918,0.15740488171488565,0.02130466813825539,0.023564108959147963,0.01794284261985099,0.06509288531354418,0.16904956316140052,0.08598544595768152,0.20949922125717943,0.08210621575535854,0.3288859649789386,0.3182673852318261,0.17282083115245284
0.05613543312321186,0.09240610906472728,0.22712346132528607,0.18645770507128248,0.15856276778998682,0.02149552046221393,0.023883206352227026,0.01763624181040286,0.06474598072741118,0.1706849204982031,0.08786368323215363,0.20955047371352797,0.08335839391228607,0.33316644407329965,0.31828338574362985,0.17414736204386552
0.054096721565914226,0.0921357707948595,0.22886992964555009,0.18828975559003894,0.15965975476823555,0.02170173895793743,0.024207763380457107,0.017346061708326692,0.06439333974989661,0.17226112967775953,0.08981609540709212,0.20964241033557124,0.0846679559009177,0.33743230514953365,0.31831690165261506,0.17551637874810094
0.052113680655047095,0.09196205340608263,0.23063689087908595,0.1900968980542839,0.1606946789545071,0.02192276292404612,0.024537358445854886,0.01707234676690254,0.0640347069368854,0.1737761163647391,0.09184333806170555,0.2097778018449023,0.08603622039114725,0.3416807200888972,0.3183710261072202,0.17693122739287875
0.050186415818142545,0.09188837532983193,0.23242732734511812,0.191878222266134,0.16166670450232914,0.02215801591517943,0.024871582117641778,0.01681512976468084,0.06366988013350942,0.17522779000091718,0.09394605109287177,0.20995936151202077,0.08746437385870191,0.3459089499259853,0.31844835915272557,0.17839505227223051
0.048314950983151826,0.09191809265053434,0.23424392075350228,0.19363258554455678,0.16257528206997632,0.022406908577209443,0.025210038023059773,0.016574429679966977,0.06329867472028645,0.17661392247472543,0.0961249032447366,0.2101896108488032,0.08895347436619631,0.3501144170689449,0.3185511195733304,0.17991072727128862
0.04649924019904057,0.0920545094677331,0.23608897483351998,0.19535871514851813,0.16342007988676044,0.022668838969486585,0.025552342224643764,0.01635024854371208,0.06292088166587732,0.17793207146967852,0.09838062666465036,0.21047079267104268,0.0905044436075319,0.3542947531619068,0.3186812662134327,0.1814808303818784
0.04473918912795256,0.09230088102894154,0.23796438109930299,0.19705534222516355,0.1642008894527574,0.022943190025588974,0.025898121012366396,0.016142567397579265,0.06253622654209261,0.17917960470029923,0.10071403889837609,0.21080488521325755,0.09211805169380753,0.3584478205546268,0.3188406089095545,0.18310767195798827
0.043034672627922384,0.09266041027550856,0.23987164444390346,0.1987213291745155,0.16491750923105666,0.02322932399173932,0.02624700703807231,0.01595134207089555,0.062144348206596,0.18035381749489088,0.10312605033398589,0.2111937068771428,0.09379491094289055,0.3625717053145895,0.31903090542585083,0.1847933510198591
0.041385543868090735,0.09313623865330355,0.2418119468656409,0.20035577729468035,0.1655696221197527,0.02352657458754176,0.02659863372197382,0.015776500843920915,0.0617448115135928,0.1814520875776798,0.10561765587576272,0.2116390520154082,0.09553549317584281,0.3666646798037202,0.3192539413497072,0.18653980977805146
0.03979163525560922,0.09373143219709693,0.24378621975855294,0.20195810882584941,0.16615671405919968,0.02383424039177824,0.026952627872487877,0.015617945928843961,0.0613371446181591,0.18247202545225868,0.10818991053032814,0.21214281410389557,0.09734016630799203,0.3707251331957467,0.3195115906003519,0.18834887579448534
0.03825275223025227,0.0944489640010495,0.24579521502645788,0.20352811855058162,0.1666780853773072,0.024151584868569033,0.02730860048704612,0.01547555814110856,0.06092088125123247,0.1834116048642325,0.1108438895568638,0.2127070818787467,0.09920923714097737,0.37475146903550716,0.31980585493443486,0.19022228999389246
0.03676866160432394,0.09529169423744764,0.24783957428017184,0.20506599139072282,0.16713294999063477,0.024477844861440577,0.027666135747347442,0.015349202502828901,0.06049559802065361,0.18426926519860834,0.11358063480264202,0.2133342034212627,0.10114299257500696,0.3787419700732156,0.32013888151781983,0.19216171917213953
0.03533907840756909,0.09626234888291835,0.24991989449783175,0.20657228391549842,0.1675205695844071,0.024812243917681227,0.028024779826349974,0.01523873325163061,0.06006094452325539,0.1850439785738541,0.1164010914009417,0.21402681503707144,0.10314173490983879,0.38269463210718413,0.32051295822798065,0.19416875215568408
0.033963659169094086,0.09736349825895584,0.2520367876676411,0.20804786928596883,0.1678403815088562,0.025154006203544476,0.028384034745376638,0.015143997667894031,0.05961666551967619,0.18573527583622518,0.11930605061047761,0.2147878338615101,0.10520580707217851,0.3866069881366872,0.32093048685591186,0.19624487935724297
0.032642007133541,0.09859753814755079,0.2541909311909658,0.20949384685226224,0.16809210589917675,0.025502369027657696,0.028743362061640906,0.015064838371833759,0.05916261488131236,0.1863432276296748,0.12229612797492241,0.2156204152817628,0.1073356041517816,0.39047599303415026,0.3213939348314891,0.1983914561522348
0.0313736851006513,0.09996667923181515,0.25638310528705865,0.21091141933431193,0.16827582620134754,0.025856592944468258,0.029102194753840325,0.015001093801662048,0.05869876142496847,0.1868683791639296,0.1253717899535001,0.21652787833834114,0.10953156853018929,0.39429804532130447,0.32190576657195374,0.20060965126701294
0.030158227360858665,0.10147294748454688,0.25861421338583784,0.2123017421925549,0.16839203841646044,0.026215968472129172,0.02945995218457086,0.014952596678898353,0.05822518708039953,0.18731164010820314,0.1285334073462098,0.2175136040996315,0.11179416708254404,0.39806913867817534,0.3224683561274732,0.20290038220880474
0.028995146247865908,0.1031181899326532,0.2608852815929875,0.21366577233623565,0.16844166584175255,0.02657981858556305,0.029816055094430097,0.014919170393052503,0.05774207807738856,0.1876741340149799,0.13178130776567815,0.21858091346153471,0.11412385032151676,0.4017850667326919,0.3230838835289866,0.2052642501704273
0.02788393250154825,0.10490407883641928,0.26319743381885174,0.2150041894254531,0.16842603781386378,0.026947496334546905,0.03016993953905188,0.014900623450373403,0.05724970999226114,0.18795701661363953,0.1351158160945417,0.21973293620409085,0.11652099479985847,0.40544162176923526,0.32375421814458866,0.20770150686638264
0.026824049782076132,0.10683211194001237,0.265551840105809,0.21631744700564495,0.16834683285014979,0.027318377184800315,0.030521068959020004,0.014896743591207403,0.056748427568200525,0.1881613048177085,0.13853728010451286,0.22097250409938146,0.1189858407397208,0.4090347645315613,0.32448079829704096,0.21021207609637074
0.025814926139335132,0.10890360882079722,0.267949637049429,0.21760591843054128,0.16820598852378374,0.02769184597969036,0.030868943555408434,0.014907295644069524,0.05623862023565861,0.1882878081159705,0.1420460792996003,0.22230211772858546,0.12151845798788415,0.41256075316410395,0.3252645370985311,0.21279561111627715
0.024855949898023203,0.11111970359612493,0.2703918209149,0.21887006255187474,0.16800558227910603,0.028067278758643996,0.031213106182794555,0.014932025877522261,0.05572069422901825,0.18833721395245845,0.1456426160744505,0.22372399988699496,0.12411876714443923,0.4160162204914514,0.3261057979600159,0.2154515542099772
0.023946476505839063,0.11348133442961354,0.27287912036343775,0.22011056983301214,0.16774768907750529,0.028444023603136782,0.03155314407225825,0.01497067064749658,0.055195042145384024,0.18831026341650473,0.14932728939026196,0.2252401897601832,0.12678660218493976,0.4193981909350774,0.3270044471461658,0.21817918210075818
0.023085844163291902,0.11598923112663673,0.2754118834859427,0.22132847715955037,0.16743424290497572,0.028821392307557307,0.03188868585969261,0.015022965570732096,0.054662011026834614,0.18820792632840652,0.15310045229531333,0.22685262939419917,0.12952178251452087,0.4227040313780496,0.3279599393009258,0.22097763164532527
0.022273391129233485,0.11864390431746966,0.27799004501955693,0.22252524432991447,0.16706696988718828,0.029198671549314027,0.03221939361543927,0.015088653482126235,0.05412187460087638,0.1880315392173184,0.1569623556767357,0.22856322645930344,0.13232417735449645,0.4259313340736778,0.3289713915686855,0.22384590170186072
0.021508470273525957,0.12144564040895856,0.280613204346701,0.2237027872044796,0.16664743962711723,0.029575147516132615,0.03254494984041627,0.01516749056108545,0.053574822890078776,0.1877828983624674,0.1609130815431762,0.23037389201569886,0.1351937574637526,0.42907773400662197,0.33003763061212704,0.22678282843875583
0.02079045944121357,0.12439450254627421,0.28328076794359186,0.22486346492263062,0.1661771942512503,0.02995013294545851,0.032865039696607735,0.015259250123130215,0.05302097666705239,0.18746430327124827,0.1649524773688386,0.23228655355746936,0.13813063159082453,0.43214066761943914,0.33115720980626157,0.22978703312460466
0.020118767116929535,0.1274903335751158,0.2859920958277803,0.22601002131322295,0.16565788535634746,0.030322991529291864,0.03317932961265452,0.015363723726507472,0.052460417159195874,0.18707854945278113,0.16908011845409934,0.234303144953689,0.14113506617818875,0.4351171175302054,0.33232839630088346,0.2328568483463191
0.019492833318035547,0.13073275726291406,0.2887466268486634,0.22714548343556354,0.16509138743062238,0.030693157984165154,0.03348744780426537,0.015480719427597866,0.051893217668658266,0.18662887281538967,0.17329531631569686,0.2364255759553016,0.14420748791933757,0.43800346693658726,0.3335491303356395,0.23599025168018797
0.018912126017952835,0.1341211761685171,0.29154397483499184,0.2282730228826874,0.1644798807183519,0.03106015227722875,0.033788977836212146,0.015610057219517033,0.051319472158374325,0.1861188511974674,0.17759715632643785,0.23865568466639914,0.1473484696978327,0.44079557080121434,0.3348169619254446,0.239184855822308
0.018376133680399667,0.13765476541567093,0.29438398914112857,0.22939578784186754,0.16382589990576685,0.03142358679708472,0.03408347090315671,0.015751561890324107,0.05073931994396473,0.18555227120785445,0.18198453592305278,0.24099517679439939,0.15055870115319558,0.44348899876639797,0.33612897254598334,0.2424379752272972
0.01788435466767365,0.14133246181973452,0.2972667751141937,0.23051673332986786,0.163132347184041,0.031783165654266164,0.03437046921631935,0.01590505372528013,0.05015296568834952,0.184932970538742,0.18645619021601373,0.24344555562201017,0.1538389456004551,0.44607932204763207,0.33748169441692,0.24574673700642252
0.0174362843860737,0.14515294868038847,0.3001926722813759,0.23163851846696928,0.16240247050930343,0.03213867576512553,0.03464953011134546,0.016070338490095808,0.04956069400594084,0.1842646786676081,0.1910107023696053,0.2460080465242158,0.1571899852912639,0.4485623671466704,0.3388710486647305,0.24910819553320435
0.01703140261121882,0.14911464018435536,0.3031621904593469,0.2327635296032173,0.16163981005129652,0.032489969881049595,0.03492024660117007,0.016247200500028963,0.048962878146533294,0.1835509093014129,0.19564649806202045,0.24868352013033282,0.16061255707941455,0.45093441104389953,0.34029231938248605,0.2525194324257221
0.016669166744420517,0.1532156736404456,0.3061759063474492,0.2338940019490847,0.1608481177185156,0.032836942235167955,0.03518226315711566,0.016435402694214358,0.04835998243924184,0.18279495618415725,0.2003618244804086,0.25147242615823473,0.16410728048839582,0.4531923047979477,0.34174015179705636,0.2559776341321781
0.01634901538052068,0.15745391440065468,0.30923432533413603,0.23503216314677056,0.16003125610305802,0.03317949795398117,0.03543528577325794,0.016634693045812304,0.04775255842184262,0.18199997779085997,0.20515471540117264,0.25437476229489053,0.16767458274383773,0.45533351634885083,0.343208549495948,0.2594801406703874
0.016070379271114314,0.1618269695436645,0.3123377151027772,0.23618035200192766,0.15919308408029528,0.033517522071596674,0.03567908570565667,0.01684481287961905,0.04714123484379746,0.18116910521314464,0.21002294488769813,0.25739008953561116,0.17131463773585928,0.4573560875761807,0.3446908802597029,0.2630244608177153
0.01583269343074241,0.1663322039062385,0.3154859425415262,0.2373410998001163,0.158337341670245,0.03385086331089788,0.035913496652719736,0.017065503713313977,0.0465267019928706,0.1803055259262171,0.214963972957105,0.26051757334347825,0.1750273472684309,0.45925850507194266,0.34617992756041965,0.26660825106608377
0.015635407042811016,0.17096675507148282,0.31867839359391953,0.23851717124868937,0.15746756430301115,0.0341793441664534,0.03613840552621148,0.017296511508324897,0.0459096910368447,0.17941253083726905,0.21997489267985376,0.2637560250396086,0.17881237457168583,0.4610394884989326,0.3476680006013421,0.27022925779579166
0.015477990389287861,0.17572754534128823,0.3219140309424293,0.23971156488371742,0.15658706387539692,0.034502789753089354,0.03635373732466405,0.017537588050403462,0.045290949277684046,0.1784935244097628,0.22505239854209397,0.26710393533107507,0.1826692079308554,0.46269770474443767,0.3491470850697066,0.273885224242552
0.015359938610168603,0.1806112886110561,0.3251915426776865,0.24092747548198526,0.15569897802113336,0.03482105994569712,0.036559434935395756,0.017788489406997482,0.04467121237428671,0.17755200035841037,0.2301927868269842,0.27055950022397335,0.1865972294807873,0.4642314542846673,0.3506090131383691,0.2775737658158982
0.015280772286378357,0.1856144900882294,0.32850950184776234,0.24216822341742777,0.15480634669470147,0.03513407691408402,0.036755434936558265,0.018048971646045117,0.04405117634586676,0.17659148777018382,0.23539197215770366,0.2741206398432802,0.19059578035491312,0.4656384679461018,0.3520456350863504,0.28129222678888804
0.01524003501576338,0.19073343696940273,0.33186650153325703,0.2434371578298341,0.1539121798387928,0.0354418458955945,0.036941642655342125,0.0183187842294656,0.04343147759962158,0.17561547435564778,0.2406454975293677,0.27778501081951096,0.19466421994005986,0.4669159586756268,0.3534489745426137,0.2850375633374499
0.0152372883044934,0.19596417852246625,0.3352612571253211,0.2447375418082677,0.1530195061736756,0.035744468068743485,0.03711791529881566,0.01859766169464091,0.04281269138081888,0.17462731475420962,0.2459485280274768,0.28155001289677756,0.19880197645284647,0.46806090848434106,0.35481134895685384,0.2888063207489417
0.015272104217361688,0.20130249450860668,0.33869267030495903,0.2460724284637197,0.15213140372909373,0.03604214484878044,0.03728406254531157,0.01888531498658506,0.04219534913503971,0.1736301413344634,0.251295825988917,0.2854127902652748,0.20300858554174706,0.46907044089803673,0.3561254382967011,0.2925947241143882
0.015344056315487766,0.20674385306590823,0.34215985104010194,0.24744454451434839,0.15125101369020819,0.03633517341460631,0.03743986341779861,0.019181425330758676,0.041579964057066876,0.17262681323610005,0.25668171476106705,0.28937022782855526,0.20728371327479672,0.46994216481133905,0.35738428812631134,0.296398828249786
0.015452709457359388,0.21228336960011165,0.34566209590639896,0.24885621507557987,0.15038153975609395,0.036623933768190994,0.037585089330242266,0.019485643145711534,0.040967055308966986,0.17161992796802972,0.26210005789338403,0.29341894219842524,0.2116271598532598,0.4706744465505221,0.35858123790860885,0.3002146680944564
0.015597610221460398,0.21791579137853495,0.3491988231131622,0.2503093556842172,0.14952623551458433,0.03690886809692244,0.037719525590363144,0.019797590843788206,0.040357167887336814,0.17061187388652732,0.26754427997203956,0.29755526669983456,0.21603884083591454,0.47126659000949384,0.35970977118575675,0.3040383872329376
0.015778281988058602,0.22363552238768675,0.35276946669747367,0.25180551319815736,0.1486883823607564,0.03719045363248568,0.037842988968035236,0.020116865844349806,0.0397508876211062,0.1696048828836966,0.2730074245989008,0.3017752291160833,0.22051874365543306,0.4717189104464611,0.3607632906854377,0.30786633821850423
0.01599422723215701,0.2294366756310573,0.35637333436691837,0.2533459120729798,0.14787126029737327,0.03746917055527753,0.03795534068567993,0.020443041263536146,0.039148851001391836,0.16860106271732803,0.27848222691417374,0.3060745203828722,0.22506685876401103,0.47203269487111665,0.3617348714014263,0.3116951501713808
0.01624493428469839,0.2353131327335657,0.3600094353552152,0.25493148034482377,0.1470781136401448,0.03774547043183973,0.03805649436131834,0.02077566360658707,0.03855174977347231,0.1676024056969645,0.2839611849498263,0.31044845203830534,0.22968308676370525,0.4722100502276975,0.3626171429016813,0.31552176122145964
0.016529884240393984,0.24125860122374077,0.36367630851666227,0.25656285132907497,0.1463121132977069,0.03801975863673735,0.03814641862038164,0.021114248303092692,0.037960330446698665,0.16661077485002462,0.2894366205132079,0.31489190005754847,0.23436712515851396,0.47225364891535654,0.3634024214660446,0.31934341556103224
0.016848556202902123,0.2472666649153949,0.3673719292581312,0.25824034394424217,0.14557631698366405,0.038292400914039786,0.038225134291683005,0.02145827633873902,0.03737538908795451,0.16562787031688336,0.29490072065617695,0.31939923912867657,0.23911835562658082,0.4721663886616117,0.3640830269709114,0.32315762693930766
0.017200430591880214,0.25333082265189155,0.37109375553627055,0.2599639262865982,0.14487362849995603,0.03856374705513344,0.0382927063150114,0.02180719588681231,0.036797761944911384,0.16465518068343116,0.30034555102891025,0.32396429288245326,0.24393578398233642,0.4719510046891247,0.3646516405150031,0.32696211215171167
0.01758499041939204,0.25944451080045594,0.37483887384942943,0.26173316837332605,0.14420675713017897,0.03883415708487225,0.03834923070628188,0.022160429316246268,0.0362283125859747,0.16369393433646667,0.30576303350628464,0.3285803389234434,0.2488180672411266,0.4716097462738409,0.3651016277619057,0.33075469928677503
0.018001720523297293,0.26560110531191666,0.37860416398083424,0.2635471923270364,0.14357818031997918,0.03910402224543125,0.038394817140109117,0.02251738255634177,0.035667916338168175,0.16274508134949492,0.31114488245312366,0.3332401806607299,0.2537635940496132,0.4711442911720937,0.36542730283595914,0.3345332161023595
0.018450104816186474,0.2717938998952909,0.38238644096835106,0.2654046329473043,0.14299011886993426,0.03937377888471496,0.03842956790540308,0.02287745400830017,0.03511744285122268,0.16180932317484004,0.31648249702629444,0.33793626117964465,0.2587705626669889,0.4705559510954353,0.36562411517092214,0.3382953639126247
0.01892962166978908,0.27801605787942985,0.38618256391085615,0.26730361978666717,0.1424445344730577,0.039643914616997664,0.03845355479337885,0.023240041560123947,0.03457773761947065,0.16088717058079183,0.3217668376517732,0.3426607915876214,0.26383703107067236,0.4698460223915575,0.3656887462317857,0.3420385818688549
0.019439737607402342,0.2842605366082424,0.3899895072001289,0.26924177555752277,0.14194314678858827,0.0399149665790811,0.03846679948131615,0.02360454678279953,0.03404960454145093,0.15997900148948765,0.32698837460996216,0.34740587991035715,0.2689609333962945,0.46901612119558694,0.3656191082629708,0.34575990567493936
0.019979899522113084,0.29051998468610546,0.3938043921962078,0.27121621394462236,0.14148745616796116,0.04018751205179151,0.03846926740492213,0.02397037557361024,0.03353379489771199,0.1590851075564696,0.3321371784128265,0.3521636504944748,0.2741400610148154,0.46806844652979757,0.365414242862991,0.34945583996629465
0.02054952660580869,0.2967866324445795,0.39762447961704495,0.2732235343302851,0.1410787614578344,0.04046215213250803,0.03846087921851642,0.024336934767311476,0.03303100808022413,0.1582057274883718,0.3372031146596731,0.3569263423072297,0.27937201003408146,0.4670059622966905,0.36507412296775205,0.3531222955789231
0.021148005356811245,0.3030522370352944,0.40144712470715643,0.27525983233763185,0.1407181698669426,0.04073948951426092,0.038441531956048845,0.02470362453598566,0.03254190249732514,0.1573410661157684,0.3421760647672233,0.3616863739576119,0.28465410038480976,0.46583249361511125,0.3645993674669686,0.35675462685400056
0.0217746907012547,0.3093081319673493,0.4052696983939511,0.2773207412527367,0.1404065987055032,0.04102010212397642,0.03841112035652347,0.025069826735219434,0.03206710976928494,0.15649129917059426,0.3470461326510697,0.3664363639737593,0.28998327702495375,0.4645527371273375,0.3639908828936813,0.3603477372367327
0.022428912177681767,0.3155453559148357,0.40908947808778223,0.2794014993571164,0.14014476942727722,0.0413045188082831,0.03836955488118715,0.02543489217319244,0.03160724734727451,0.15565656450003906,0.3518038195774286,0.3711690969761751,0.29535602001037264,0.4631721888539279,0.3632494879608469,0.3638962015429419
0.02310998182599824,0.3217548046059405,0.4129035116516531,0.2814970304608606,0.1399331950859805,0.04159320955599521,0.0383167758062275,0.025798135088673357,0.03116292827117171,0.1548369410417457,0.3564401502445547,0.3758774297965998,0.3007683041307905,0.4616969969739892,0.36237567291171496,0.3673943848655845
0.023817201750256724,0.3279273773241729,0.4167084576237441,0.28360202877527574,0.13977216298707168,0.041886596673284066,0.03825276297518527,0.026158840956592423,0.030734767910200043,0.1540324172731828,0.36094673548502915,0.38055413601158633,0.306215619879995,0.46013375050744615,0.36136964362474866,0.37083655572085916
0.02454987071181867,0.3340541076272397,0.42050042042255115,0.2857110412866008,0.1396617151575555,0.04218507775077257,0.03817754099788567,0.02651628355807842,0.030323387639138468,0.1532428510408977,0.36531576068249877,0.3851917012458207,0.3116930176436058,0.4584892180413868,0.36023161558022265,0.3742169914202692
0.025307289382448254,0.34012626896013115,0.42427484285575306,0.2878185405900497,0.13960163136299214,0.04248904799977114,0.038091179874168185,0.0268697437406101,0.02992941551354945,0.15246792270528997,0.36953989381157365,0.3897821356162381,0.3171951319483557,0.4567700530180611,0.3589621872998877,0.3775300731975992
0.026088763905653622,0.34613544625546655,0.42802652647502637,0.2899189813861716,0.13959142051862486,0.04279891704855217,0.037993791190873524,0.027218526362815184,0.029553484118643957,0.15170708767037,0.3736121125649859,0.39431692792169937,0.3227161691051125,0.454982498518034,0.35756267173547,0.38077036820623844
0.0268936074465584,0.35207356556128533,0.4317497767416348,0.2920068344915464,0.1396303203691443,0.04311511914086946,0.037885520183239325,0.027561974207256697,0.02919622587474896,0.15095954578156776,0.3775254558760611,0.3987872011276459,0.32824985776744725,0.45313217301527003,0.35603534661741965,0.38393269516492384
0.027721139456762387,0.3579328752239407,0.43543860631183523,0.29407659321746327,0.13971729861337773,0.04343811608409303,0.03776653406515103,0.02789947779273016,0.028858266182724728,0.15022424679155333,0.3812727396066571,0.40318398767677455,0.33378938643321077,0.4512240331185829,0.35438361128142337,0.38701217020024375
0.028570682441583752,0.36370587416581734,0.43908694312351143,0.29612274825699364,0.13985105469052664,0.04376839273830159,0.03763700711862112,0.028230480239765793,0.028540214878768778,0.14949993035332493,0.3848463602137464,0.40749851528828934,0.33932738757364195,0.4492625107153344,0.3526120434974899,0.3900042293532266
0.029441556092804605,0.3693851852889991,0.44268882192316744,0.2981397287253116,0.14003003141145257,0.04410644529056014,0.03749710309634451,0.02855447662530487,0.028242656533408527,0.1487851812687859,0.388238326062954,0.4117224553149282,0.34485601087057144,0.4472517168635405,0.35072635623679405,0.3929046243350254
0.03033306874010562,0.37496337492784293,0.4462385463612399,0.30012180866193094,0.14025244302462156,0.04445276299058845,0.037346955538359206,0.028871007586603412,0.027966140168504423,0.14807848534066503,0.3914405126484066,0.4158481158661791,0.3503670620898823,0.4451956218396058,0.3487332606566891,0.3957093884814159
0.03124450617766404,0.38043273321220034,0.44973080835837537,0.3020629803776069,0.14051631745795612,0.044807804407178846,0.03718664919288586,0.029179647278806602,0.02771117009701161,0.14737828143096232,0.3944450087138062,0.41986856471946976,0.355852159817154,0.4430981871480816,0.34664024739475313,0.398414770499871
0.0321751185166774,0.38578508429517844,0.45316075248870646,0.3039568234956115,0.1408195474557572,0.045171973235412714,0.03701621107516267,0.029479986132174743,0.02747820166565085,0.146683008417905,0.39724444392737546,0.42377767083556483,0.3613028832761658,0.4409634512377574,0.3444553031066107,0.40101713453120313
0.03312410845986958,0.39101174681544837,0.45652397571282494,0.30579645159520874,0.14115994616220887,0.045545606360955906,0.03683561742423059,0.029771609170719027,0.027267643975073756,0.14599114571805008,0.3998322567999106,0.42757005784799096,0.3667108962709097,0.43879557345591863,0.3421865827005487,0.4035128262333545
0.03409062743689397,0.39610369458110195,0.45981645672366717,0.30757459702928674,0.14153530261924066,0.04592898328825737,0.036644811836840534,0.030054074097769584,0.02707986649080741,0.1453012460285308,0.40220288533265053,0.4312409679584286,0.37206803292276186,0.4365988426641669,0.33984208360677315,0.405898005982861
0.035073782697090335,0.4010518337497913,0.46303441400681883,0.3092837934879725,0.14194343199898996,0.0463223501037724,0.03644372579929422,0.030326900184660513,0.026915205260951862,0.1446119589606928,0.4043518672064006,0.43478603996979054,0.37736633270885517,0.4343776578590798,0.3374294299847129,0.40816845397696944
0.03607265119142043,0.4058472919793871,0.4661740968809929,0.31091658183794807,0.14238221515532437,0.046725945490428085,0.036232297545034986,0.030589576252036777,0.0267739671408343,0.14392204429253408,0.40627584142444156,0.43820101044131365,0.38259801523964554,0.43213648812119754,0.3349558691892018,0.4103193878476413
0.037086294721979586,0.41048167462720453,0.46923151866365037,0.3124657057026246,0.1428496223267525,0.047140023039577934,0.03601048830587554,0.03084158218194524,0.026656431923401332,0.1432303736751483,0.4079724489164557,0.441481377928104,0.38775538904573287,0.42987981839363393,0.3324284482896884,0.41234539332501857
0.038113774058349204,0.414947270535057,0.47220218117051216,0.31392428527268257,0.14334371658333966,0.04756486843955713,0.035778295366325534,0.031082412949538587,0.02656285244838364,0.14253591980032781,0.4094401354017278,0.4446221550785769,0.3928306931144914,0.4276120861940442,0.32985423853065643,0.4142405322973428
0.039154161208422224,0.4192371919256035,0.4750809220079775,0.31528595803731907,0.14386263386074005,0.04800081069143029,0.03553576141175771,0.031311599780252095,0.026493452869111225,0.14183773228659055,0.4106778654896186,0.4476178643542654,0.39781588370022947,0.4253376126748818,0.3272405157499678,0.41599856867725443
0.04020654905296575,0.42334543623861004,0.4778619933251181,0.31654497610813614,0.14440453808933007,0.04844822685259194,0.03528297976514106,0.031528726996663696,0.026448425337349576,0.14113489988406913,0.41168476225429507,0.450462790295878,0.40270243595301275,0.42306052976349223,0.3245948742256886,0.4176132190853096
0.041270057623131996,0.42726686219632043,0.48053931842428904,0.3176962515791347,0.1449675518780737,0.04890754017264396,0.03502009523350163,0.031733443713405675,0.026427925419462234,0.14042649904790688,0.41245973364568855,0.4531513443130268,0.4074812948214563,0.420784703699561,0.32192527505298585,0.4190783906356307
0.04234383642008265,0.4309970776934804,0.48310679273952517,0.31873534385812263,0.1455496733933333,0.04937921184096153,0.03474730043317281,0.031925469819405534,0.026432066730800757,0.1397115294904571,0.413001249894032,0.45567841067987125,0.41214304327839246,0.4185136543382814,0.31924003437394943,0.4203883961073523
0.04342706234402401,0.4345322428117554,0.48555855476263216,0.3196583859693717,0.14614871599131926,0.049863726888207976,0.03446482762995453,0.032104595987097834,0.026460916230286017,0.13898884411547616,0.4133074186681641,0.45803962469990284,0.4166782035173153,0.4162504692074896,0.31654775998757634,0.4215381370387589
0.04451893301055685,0.4378687968272101,0.48788920604290037,0.3204619502513563,0.146762315623084,0.05036157505206229,0.03417293631219104,0.03227067774868644,0.02651449272271485,0.1382571000941331,0.41337630243987333,0.4602315664335949,0.42107755380164824,0.41399771149725967,0.31385724692069134,0.4225232459532755
0.04561865547573212,0.44100312297408367,0.4900939703736694,0.32114285740139714,0.14738800944535646,0.050873227611104126,0.033871896904668485,0.0324236239630269,0.026592769685887058,0.1375147651442266,0.4132063011372611,0.46225185864679924,0.42533240847851855,0.41175732193340847,0.3111773434808853,0.42334018001411783
0.04672543065450159,0.443931213612985,0.49216878511670115,0.32169793618467557,0.14802334563214814,0.0513991112970993,0.033561971219559,0.032563380249746456,0.026695680547162738,0.13676018218231445,0.4127964875441055,0.46409916366561066,0.4294348409094699,0.40953052986884164,0.30851679931260156,0.4239862598816308
0.04783843398443044,0.44664849551876395,0.49411032046830566,0.32212377477129767,0.1486659883069407,0.05193958354031516,0.03324339185524492,0.03268990818010752,0.026823124081186804,0.1359916621054045,0.4121468602090994,0.46577308010593504,0.4333778321234403,0.40731781800244526,0.30588410628455676,0.42445964936553765
0.04895679313944677,0.449149935281257,0.495915925303043,0.32241657797473144,0.14931380338350306,0.052494919695279516,0.032916347446865786,0.03280316118052508,0.02697496907909848,0.13520757732006897,0.4112584996894605,0.46727394646656334,0.43715533251119865,0.4051189702070479,0.30328735278377794,0.4247592735580727
0.05007956645004166,0.4514303440652881,0.4975835010399091,0.32257223248960804,0.1499649197456372,0.05306531983324118,0.032580982468512903,0.03290306113112449,0.027151058114652588,0.13440644548292668,0.41013361983917923,0.46860256387325916,0.4407622294940066,0.4029331735043547,0.3007341355116857,0.4248846754319165
0.051205731098487854,0.4534847197947069,0.4991113077548507,0.32258654208099274,0.15061776208652353,0.05365092913358814,0.03223741218054315,0.032989485926711117,0.027351210227561318,0.13358699898509896,0.4087755123242151,0.4697598544805888,0.44419422030727707,0.4007591297721794,0.2982315633279588,0.4248358133219275
0.052334187190939595,0.4553085468947445,0.500497709469204,0.3224555139919274,0.1512710538533254,0.054251861191723476,0.03188574430312852,0.03306227588891931,0.027575222330260156,0.132748236231814,0.4071883891515362,0.47074649333804897,0.44744759526923983,0.39859516097034986,0.2957863288994867,0.4246128042228599
0.05346377200076812,0.4568980345544654,0.501740868089332,0.32217562340600675,0.15192379087271654,0.05486821962955981,0.031526099862062014,0.03312125388061625,0.027822869130499014,0.13188945160314472,0.4053771342584287,0.47156262190934645,0.4505189426035525,0.39643930639485936,0.2934047912315603,0.4242156203699107
0.05459327476594395,0.4582502843815889,0.5028384337778845,0.3217440331786282,0.15257518815579857,0.055500117338153486,0.03115863060519051,0.03316624837441226,0.028093901360031343,0.13101024207922987,0.40334698066867475,0.4722077928722832,0.45340479059774014,0.3942894110698119,0.2910930356212823,0.4236437954283548
0.05572144772391463,0.4593633816887958,0.5037873654485708,0.32115875807996835,0.1532246039304462,0.056147693064011996,0.03078353229268457,0.033197113994857905,0.028388042119763354,0.13011048979164486,0.40110313964160416,0.4726811736725638,0.45610125603630025,0.3921432047096112,0.2888569047608498,0.4228962927171014
0.05684701252325127,0.4602364078833337,0.5045840017540248,0.32041876545804826,0.15387144602357397,0.05681112503960954,0.030401053374510423,0.033213748224475134,0.02870498120101072,0.12919032112200718,0.39865046784326624,0.4729818712324244,0.4586038706525911,0.38999837063910714,0.28670200254391043,0.42197164282730865
0.05796866178393918,0.4608693744690124,0.5052243378502913,0.3195240073173295,0.1545150662821537,0.05749064130417943,0.030011498799248915,0.03321610368993608,0.029044367702388083,0.12825004430272022,0.39599333979784807,0.47310924177503877,0.4609077058497731,0.38785260367453317,0.2846336736635792,0.42086826260217425
0.0590850560634865,0.461263082000081,0.505704366463263,0.31847538216574367,0.15515465872363632,0.05818652628661848,0.02961522893479648,0.033204195636303176,0.029405803337128954,0.1272900686808667,0.3931358059274564,0.4730631396730637,0.4630076978723542,0.38570365535491835,0.28265696332131973,0.41958480386269975
0.06019481700261963,0.46141890996046314,0.5060203953614448,0.3172746284354119,0.15578919926977972,0.058899123157892246,0.0292126538096323,0.033178104396493956,0.029788841129915675,0.12631080979703946,0.39008190701284834,0.4728440969880428,0.4648990010160713,0.3835493642170464,0.280776562195828,0.41812046538222436
0.06129651792076753,0.46133854598616336,0.5061693138538752,0.3159241546408311,0.15641745822243405,0.05962883143536816,0.028804223091622817,0.03313797286301706,0.030192991958838643,0.12531259307335882,0.3868359773660144,0.4724534287761731,0.4665772920617968,0.3813876681644819,0.27899674221416965,0.4164752509502848
0.06238867354547426,0.46102366508773596,0.5061487949398858,0.3144268145170689,0.1570380688574435,0.06037609935995399,0.028390412400792864,0.03308399916314868,0.030617736294922687,0.1242955903711755,0.38340287430890485,0.47189326245773716,0.468039010274421,0.3792165955078435,0.2773212959032851,0.4146501602112998
0.06346973082277402,0.46047559832306323,0.5059574218312692,0.31278563801293585,0.1576496101898238,0.061141410682030196,0.02797170669678257,0.033016424920784174,0.03106253738576982,0.12325982483396639,0.3797881246119653,0.4711664924895911,0.46928152501172754,0.37703423104761563,0.2757535058581306,0.41264730219855555
0.06453806280053874,0.45969510756875476,0.505594730289325,0.31100354836231925,0.15825068006180468,0.06192526568377555,0.027548581586900375,0.03293551965165982,0.03152685419422882,0.12220523757549871,0.3759979839407162,0.4702766642081267,0.47030322658367985,0.3748386537244514,0.27429616048704797,0.41046992554150774
0.06559196735008278,0.4586823982141426,0.505061161576354,0.3090831537846635,0.15883995348164903,0.06272815652018984,0.027121485303396448,0.03284156197681463,0.032010153341997305,0.12113177588989708,0.3720394106820612,0.46922779303635437,0.47110353920684983,0.37262784296363577,0.27295159729969,0.4081223639049576
0.06662967196684254,0.45743736183506595,0.5043579247783165,0.3070267270084863,0.1594162255994032,0.06355053725518335,0.026690828352450652,0.032734818445827166,0.03251191927183722,0.1200394731050896,0.3679199604518648,0.4680241273112666,0.4716828576150315,0.37039955196404334,0.2717217438975933,0.40560989996042746
0.0676493450856914,0.45595991241967937,0.5034867717100465,0.3048363822929398,0.15997843930118724,0.06439279189153851,0.026256986793994637,0.03261552281385136,0.033031661846879314,0.11892851131865584,0.3636476118610951,0.4666698648246946,0.47204241114325085,0.36815115287235717,0.2706081430847937,0.4029385557176342
0.06864911333041566,0.45425030594166943,0.5024496923836616,0.30251433908259734,0.16052569785354107,0.06525521169511363,0.0258203161797119,0.032483863461721475,0.03356892065425502,0.11779926534934818,0.35923053754491796,0.4651688496147491,0.4721840610189181,0.3658794966763657,0.26961195943952865,0.4001148210156593
0.06962708301181998,0.4523094061701593,0.5012485438437396,0.30006317083081574,0.161057263340956,0.06613799564019862,0.025381168131667714,0.0323399861224189,0.03412326537449885,0.11665232733180285,0.3546768369034961,0.46352433551399347,0.4721100383327005,0.3635808807642618,0.26873396683401785,0.39714533511876277
0.07058136315323219,0.45013888474344654,0.49988468658926405,0.2974860046818636,0.16157254183190237,0.06704127466437186,0.024939904743251883,0.03218400946524564,0.03469429171775712,0.11548851242687148,0.3499942777049852,0.4617389442934425,0.471822631868674,0.3612511760632532,0.26797451789250665,0.3940365544972765
0.07151008652459172,0.44774134641815144,0.4983588194193467,0.2947866643687457,0.16207105630854596,0.06796514709915039,0.024496909570895516,0.032016044842398166,0.035281612610936014,0.1143088470460112,0.3451901559041284,0.4598148483792577,0.4713238505675428,0.3588860561877373,0.2673335038690157,0.3907944999457438
0.0724114247545502,0.44512037387263814,0.4966711415282349,0.29196975174871653,0.16255240843452792,0.06890971440168192,0.024052594919251245,0.03183621456238549,0.0358848445422169,0.11311454173950257,0.3402713538453983,0.45775406474594044,0.4706151505394068,0.35648124435315454,0.26681032890262374,0.38742470925461514
0.07328359366114175,0.4422804903271008,0.4948217247462684,0.2890406656809034,0.16301623024559322,0.06987511333819506,0.023607405321580496,0.031644667164926435,0.036503589223333535,0.11190695143869399,0.33524453656039355,0.45555874213697284,0.46969737327458116,0.35403273986587497,0.266403921442905,0.3839324131061777
0.07412484552074107,0.4392270423315311,0.4928109022554994,0.28600556025565527,0.16346212685795153,0.07086154321087208,0.0231618173203523,0.03144158929277808,0.03713741305426039,0.11068752605808278,0.3301163650810626,0.4532313985491385,0.4685709424773718,0.3515370084614224,0.2661127764610773,0.3803228099440415
0.07493344602796105,0.435966009124907,0.4906395893084391,0.28287124750525366,0.16388961132122729,0.0718692868765583,0.022716335846265652,0.031227213893598768,0.037785832881155085,0.10945775456130057,0.3248936640072164,0.45077509777981456,0.46723619782156506,0.34899112147118566,0.26593500151374855,0.3766013204015033
0.07570763506159145,0.4325037487288331,0.4883095150106043,0.27964505245812205,0.1642980328111931,0.07289872451657199,0.0222714876622803,0.031001824620978502,0.038448318005968055,0.10821910550070754,0.3195835300467039,0.44819355655665416,0.4656937287952223,0.34639283105633045,0.2658683465975526,0.3727737821271252
0.07644558059788335,0.4288466941579522,0.48582335147902217,0.2763346305684807,0.16468650851257194,0.07395033937347788,0.02182781246986464,0.030765756433366345,0.0391243086130596,0.1069729667891635,0.31419337942068876,0.445491177088034,0.46394465704792215,0.34374057249732026,0.2659102095559644,0.36884657958363176
0.07714535592435011,0.42500103075679274,0.48318473347555607,0.27294775903095675,0.16505388923695,0.07502471496335006,0.021385852358458232,0.03051939250949575,0.03981324162387034,0.10572059131113377,0.30873093591393747,0.4426730036398654,0.4619908537557131,0.34103338949043976,0.26605761385054283,0.3648267072238977
0.07780496679467729,0.42097244624407976,0.4803981690281904,0.26949211487559904,0.16539878267892094,0.07612252359012939,0.020946140311834054,0.03026315770740151,0.04051457642071299,0.10446306459939902,0.30320416493375213,0.4397446057680537,0.45983508161079495,0.3382707841104946,0.26630716465094717,0.3607217681852615
0.0784224189612482,0.4167660833910378,0.4774688489462198,0.2659750791319473,0.16571961992481568,0.07724450632064829,0.020509188702578906,0.029997508891015438,0.04122781748616735,0.10320130852504648,0.29762116199209526,0.4367118948818912,0.45748105497765856,0.33545249895796536,0.26665501191438545,0.3565399140557337
0.07899579819811896,0.4123867204304233,0.47440236985372614,0.2624036515190573,0.16601473461915528,0.07839144491219255,0.020075480143021573,0.02972292253413179,0.041952532534279205,0.10193611343296159,0.29199000635758837,0.4335808846085464,0.454933416249523,0.3325782444646975,0.2670968607899722,0.3522897341399065
0.07952334648228974,0.4078390575143545,0.47120439082727444,0.2587845193913898,0.166282439574537,0.07956412650509684,0.019645464574841835,0.02943988008647634,0.04268836488440918,0.10066817827800631,0.2863185921088869,0.43035740867718714,0.45219763112893396,0.32964743135840885,0.267628039121398,0.3479801048171738
0.0800035278433306,0.4031279873231871,0.46788027144489963,0.25512421181188466,0.16652109694657843,0.08076330218563477,0.01921956373544568,0.029148851649688362,0.04343503909268278,0.09939814653781524,0.2806144677873875,0.42704684549713456,0.44927981005586765,0.3266590529922453,0.26824359243927925,0.3436200109281083
0.08043507904733545,0.3982588084488184,0.46443481223094385,0.2514292478792991,0.16672917937077567,0.08198964291132668,0.018798179173064335,0.028850279368003596,0.04419235919536062,0.098126635702137,0.2748847531213055,0.42365397016823714,0.44618646694799347,0.3236118086710446,0.2689383744114327,0.33921835160534575
0.08081704109230793,0.39323737474691906,0.4608722344515398,0.24770624807403654,0.16690531945312786,0.08324370476328119,0.018381699676310002,0.028544565007405428,0.04496019931190696,0.09685426078186746,0.26913617937870693,0.4201830248887959,0.4429242295004578,0.320504372849905,0.2697071170804374,0.33478374261637944
0.08114876857100434,0.3880701775333565,0.45719639257611566,0.2439620073884293,0.16704834513872147,0.08452592123912032,0.01797050686511356,0.02823206806783459,0.045738486776423753,0.09558165240936324,0.26337521108008827,0.4166379444652328,0.43949951744126525,0.317335664939554,0.27054447274160526,0.33032434414714384
0.08142991523720575,0.38276436112334117,0.45341107060616553,0.24020353118191692,0.16715729877125918,0.08583662684101116,0.01756497898598457,0.027913115517643035,0.04652717838463477,0.09430947012647521,0.2576081728106152,0.41302260625814774,0.4359182475888476,0.31410506180478365,0.2714450214040166,0.32584777554048217
0.08166039551894204,0.37732767556373936,0.44952023835212507,0.23643803659858428,0.16723143810399974,0.08717609672344316,0.017165493022291776,0.027588017106333764,0.047326230729844716,0.09303841138939647,0.25184134448449436,0.4093410368429815,0.43218570280159574,0.31081254247395645,0.2724032402544857,0.32136115110641406
0.08184032318047973,0.3717683733145427,0.445528229174723,0.2326729239186073,0.16727021811284873,0.08854458670401613,0.016772425276558617,0.02725708035192013,0.048135567608932985,0.09176921668148835,0.24608101919255249,0.4055975604875953,0.42830664534237983,0.30745875944519147,0.2734134341910015,0.316871186283214
0.08196992976468255,0.3660950589649346,0.4414398335618652,0.22891572333472265,0.16727325316462305,0.08994236811248973,0.016386150610337557,0.026920623254881385,0.048955054096772053,0.09050267094606021,0.24033352429202004,0.40179688606767694,0.42428557443036224,0.3040450358891176,0.2744696317500596,0.3123843014548836
0.08204947153054587,0.36031650273962895,0.4372603080375071,0.22517402333052924,0.16724025986905194,0.09136975620036052,0.016007040543024285,0.026578984412472733,0.04978449110377343,0.08923960136395477,0.23460520876090435,0.39794413307550547,0.4201269856480944,0.30057329264747146,0.2755654792870967,0.3079066950806077
0.08207915404628986,0.35444142952470986,0.43299530374546924,0.22145538709850138,0.16717098175284953,0.09282713109104022,0.015635460419084837,0.026232530318273165,0.05062363352531616,0.08798087133914298,0.22890240180228014,0.3940448010089883,0.4158355804455515,0.2970459129224784,0.27669420859954075,0.30344438501477616
0.0820591183129637,0.3484782970674268,0.4286507234456926,0.21776726330538118,0.16706509770419165,0.09431495054200169,0.015271765857806674,0.025881659747618545,0.05147221999486821,0.08672737044942058,0.22323134913670545,0.39010468936740816,0.4114164206538624,0.29346555573569083,0.2778487257243479,0.29900322055433165
0.08198950029137721,0.3424351046843293,0.42423251942712836,0.21411689704362552,0.16692212538957116,0.09583375409981007,0.014916298703349137,0.02552680524437076,0.0523300019463157,0.08548000009232477,0.2175981342950902,0.38612977752887295,0.40687502589461344,0.2898349314818269,0.2790217808620193,0.2945888689153571
0.08187052691767431,0.33631931730124925,0.419746447790266,0.2105112467550903,0.16674135569893622,0.09738415854190283,0.014569382695883164,0.025168431833140183,0.05319676753579339,0.08423965462283078,0.2120085924975174,0.3821260748562988,0.40221741449988296,0.28615657096518793,0.28020615395729714,0.29020678067302275
0.08170260886855549,0.33013794585758993,0.4151978205904578,0.20695691952135645,0.1665218603722533,0.09896684480246049,0.01423131934784692,0.024807033179197878,0.05407235930669712,0.08300719794162328,0.20646823359296718,0.37809945150965824,0.3974500909298703,0.2824326669665454,0.28139482592504494,0.28586213922736997
0.0814864150937029,0.3238977132219563,0.41059135475921466,0.20346014569646334,0.16626257243298645,0.1005825368632861,0.01390238527490988,0.024443125502443853,0.05495668479590811,0.08178343573946989,0.20098220704929026,0.3740554597766304,0.3925799846208902,0.27866507363520815,0.28258112392174267,0.28155979961993505
0.08122292527286075,0.31760521531801783,0.4059312038824768,0.200026797817806,0.16596239870284116,0.1022319733456874,0.013582832354422212,0.024077239619495042,0.055849719620638213,0.08056908390951807,0.19555532714097582,0.3699991661364499,0.3876143466891863,0.27485545389727495,0.2837588296798836,0.2773042220609684
0.08091345782577482,0.3112670466690525,0.40122113547665594,0.1966624284484259,0.16562033060059853,0.10391587275845289,0.013272890477670732,0.0237099115376405,0.056751502935536546,0.07936473869585403,0.19019213226751186,0.36593504387579157,0.38256061196071933,0.2710054793519703,0.2849222412271751,0.27309940918113434
0.08055967268786131,0.3048898888480261,0.39646474042286506,0.19337230048227746,0.16523554119450617,0.10563489353353535,0.012972771153894062,0.023341672055115014,0.05766212549160424,0.07817086405481961,0.18489694104717797,0.3618669762640308,0.3774262344223246,0.26711700735703114,0.2860661803218222,0.2689488657073498
0.08016354963162317,0.29848056221081726,0.39166560207996426,0.1901614028150631,0.16480746386356596,0.10738959010941498,0.01268267059107827,0.022973035833255055,0.05858171084667951,0.07698780716919647,0.17967389080588234,0.3577983572920507,0.37221850443862275,0.26319221264226034,0.28718594061853275,0.2648555976806843
0.07972734434666756,0.29204604296129366,0.38682740514204184,0.18703445309920655,0.16433584862153494,0.10918036965919958,0.012402771866456991,0.02260449071547397,0.05951039055902079,0.07581583292311042,0.1745269582352473,0.3537322273668837,0.36694435665851255,0.25923366971316236,0.28827717484547893,0.2608221436190492
0.07925352569698611,0.2855934489886779,0.3819539798988567,0.18399588988154653,0.16382079312992626,0.11100746275511186,0.012133246159092677,0.022236489572086713,0.060448274431158126,0.07465516143727982,0.16945996418076692,0.34967139969809236,0.36161020174627434,0.2552443850045472,0.28933572296112064,0.25685061083810906
0.07874469848813653,0.2791299989929776,0.3770492814402685,0.1810498568252424,0.1632627466155792,0.11287092194844149,0.011874253058059019,0.021869448209746095,0.061395417538510785,0.07350600167032209,0.16447656542869457,0.3456185666929714,0.3562218580862853,0.25122778034467425,0.29035738849599185,0.25294269765339444
0.0782035166625328,0.2726629501569327,0.3721173072227685,0.17820018219865805,0.16266248623199034,0.11477064588423254,0.011625939999359857,0.021503750129847114,0.062351790746106514,0.0723685795535225,0.15958023694240328,0.34157638592236916,0.35078462561867757,0.24718763168326904,0.29133771550825444,0.24909969635190396
0.0776326003079742,0.26619952003456715,0.36716196011344354,0.17545036026805447,0.16202106676591757,0.11670641348506951,0.011388440922567543,0.02113975453919525,0.06331726849199085,0.07124315973953695,0.15477424825176597,0.3375475453697303,0.3453034426302944,0.24312796911320136,0.29227189776634144,0.24532247750604544
0.07703448782047756,0.2597467984234748,0.36218686735340855,0.17280354587459887,0.16133974589680686,0.11867791699939467,0.011161874273979177,0.020777803946770833,0.06429164088169517,0.07013006043727507,0.15006163764067035,0.33353480769740546,0.3397830449414132,0.2390529458743336,0.2931549070647566,0.24161146681008128
0.07641164750830447,0.2533116547990295,0.35719519726142895,0.1702625667820252,0.16061988838354727,0.12068479084838696,0.01094634071756651,0.0204182302514756,0.06527463995895849,0.06902966121423763,0.14544518763641343,0.32954103326102,0.33422809882444243,0.23496668518553418,0.2939817631604171,0.23796664412866148
0.07576653257773645,0.24690064645183238,0.35218957462319117,0.1678299438384201,0.15986285351731022,0.1227266357333396,0.010741921555609204,0.020061359345862565,0.06626596663622103,0.06794240402781444,0.14092740708531773,0.32556918166910587,0.3286433047951676,0.23087312297799922,0.2947478195580389,0.23438758739751467
0.07510164366617707,0.24051993977155167,0.34717216378185806,0.16550790670324866,0.1590698799135003,0.12480303764761946,0.010548679051095975,0.01970751433812404,0.06726531320421515,0.06686878806029196,0.13651052708508832,0.3216222918901387,0.32303347046863046,0.22677589341623744,0.29544901106005467,0.23087355002192392
0.07441957915628297,0.2341752724810294,0.3421448599553068,0.16329840060127945,0.15824200744467207,0.1269135815874572,0.010366658668388911,0.01935701755641475,0.06827238048816321,0.06580935915428839,0.13219651154292558,0.31770344128652067,0.3174035517411617,0.22267831535796326,0.29608204789384207,0.22742354755176597
0.0737230690900555,0.2278719744463751,0.3371094853989526,0.16120308354920485,0.15738008044968624,0.12905785986086254,0.010195892006961093,0.01901019154132182,0.06928688894309844,0.06476469476765034,0.12798707260259723,0.3138156845008792,0.3117586626373409,0.2185834822464655,0.29664454456517564,0.22403644124175526
0.07301499233620437,0.22161502605847094,0.33206794253040806,0.15922331715221383,0.15648482838950534,0.13123547494752685,0.010036399334370429,0.018667359251071162,0.07030858322064758,0.06373538539563424,0.12388368163419532,0.3099619737953439,0.3061040552281312,0.21449439410951032,0.29713507586024296,0.220711012866213
0.07229837761677328,0.21540911954972913,0.3270223121962147,0.1573601625790218,0.1555569768376649,0.13344603686672765,0.009888191303188451,0.018328843699088243,0.07133722998244615,0.06272201336123705,0.11988757401535796,0.3061450631838493,0.30044507205575793,0.21041407698406847,0.29755315724795645,0.21744602538712027
0.07157638984598179,0.20925870758521403,0.3219748914026281,0.15561439500872243,0.15459735148410614,0.1356891549755177,0.009751269712158239,0.017994967216347614,0.07237260897225684,0.061725129778092164,0.11599975027987616,0.3023673994225758,0.29478707445292307,0.206345672880235,0.2978991518765429,0.2142402646597054
0.07085230393392158,0.20316803780948903,0.31692816941452717,0.15398653735193268,0.15360696335693963,0.1379644240634582,0.00962562723444339,0.017666050485512504,0.07341449758462393,0.060745230375130584,0.11222097866397059,0.2986310126015643,0.2891353509722245,0.2022924985045763,0.29817411096976343,0.21109255828845463
0.07012946872943215,0.19714117472353854,0.31188474579384584,0.15247690354006713,0.15258707229933324,0.14027140455520606,0.00951124611071241,0.01734241143636545,0.0744626493804751,0.059782731875096105,0.10855180348083096,0.29493744491355917,0.2834950107982619,0.1982580726946855,0.2983795583229554,0.2080017689807698
0.06941126410137664,0.19118201075844918,0.30684719824418244,0.15108564327458818,0.15153922678474463,0.1426095966024673,0.009408095912898031,0.0170243640301532,0.075516767199107,0.05883795485005203,0.10499255822104116,0.2912877608980509,0.27787086745738077,0.1942461141280237,0.2985172324935481,0.20496676122192511
0.06870105427912351,0.18529426872830268,0.3018179116228796,0.1498127843321489,0.15046527926093753,0.1449784078643788,0.009316131119295776,0.016712216902350144,0.07657647170114484,0.05791112183280936,0.1015433783710014,0.28768263542477346,0.27226733128829167,0.19026051228231805,0.29858880997001763,0.20198634172519786
0.06800214236019732,0.17948149798112303,0.2967989077053257,0.1486582696488946,0.149367377324807,0.1473771148568937,0.009235290277376103,0.016406271786468994,0.07764127089756961,0.057002372333543654,0.09820421033962336,0.2841224733384775,0.26668835640774874,0.1863052757764121,0.2985956760455142,0.19905917578714113
0.06731773705911596,0.17374706653262637,0.2917917672472706,0.14762198655129005,0.1482479320875806,0.14980481790532263,0.009165497895833038,0.016106821611811144,0.07871054553189762,0.05611178633339206,0.0949748154376593,0.28060752452798815,0.26113747558020356,0.18238446305830047,0.29853885172910627,0.19618369519822382
0.0666509448965094,0.16809415128189906,0.28679770440675356,0.14670378581557014,0.14710956603813635,0.1522603944778725,0.009106668002275982,0.015814148159044174,0.07978356066895016,0.0552394079289303,0.0918547706004407,0.2771379831795414,0.2556178964749154,0.17850210089768856,0.2984191120354115,0.19335804413855556
0.0660047872880204,0.16252572809790847,0.2818177372792701,0.14590348871997003,0.14595504350393443,0.15474246808183023,0.009058707628339796,0.015528519170164483,0.08085949486866324,0.05438526637866535,0.08884347182063966,0.2737140684156921,0.2501326081305437,0.17466209627203985,0.29823720104947143,0.19058010906760478
0.06538222650857983,0.1570445631638922,0.27685286213953914,0.14522088089073837,0.1447871874105676,0.15724941213199659,0.00902151940042064,0.0152501848422474,0.08193747245162654,0.05354939404272727,0.0859401461314661,0.2703360843135431,0.24468447219127762,0.17086815117137868,0.29799403827106913,0.1878476231768413
0.06478618678901144,0.15165320651024417,0.2719041918911632,0.1446556925102431,0.14360878643515548,0.15977938793370922,0.008995002942492785,0.014979373836151085,0.0830165927756413,0.05273184078133713,0.0831438711581398,0.2670044581428651,0.2392762938932954,0.1671237029476796,0.2976908809804997,0.18515829726307392
0.06421956689914313,0.14635398819455542,0.26697305178749153,0.14420756531473905,0.14242250227217235,0.1623303989680653,0.008979054890976446,0.014716289918740721,0.08409595507118728,0.051932684490841145,0.0804535969748437,0.2637197565141865,0.2339108715610226,0.16343191685180963,0.29732943967283715,0.1825099433346737
0.06368524461836497,0.1411490171388635,0.2620610301033529,0.14387600770687656,0.14123080383981504,0.16490034784375782,0.008973567443411799,0.014461111525408259,0.08517467757365244,0.051152037599733066,0.0778681666132366,0.26048267992953866,0.2285910242679534,0.1597957292824273,0.296911946351138,0.17990057919163166
0.06318607392217834,0.13604018224547285,0.25716998437946537,0.14366034314547116,0.1400359608262135,0.1674870911774119,0.008978425501385848,0.014213995357746865,0.08625190984693758,0.050390049508675684,0.07538633355949907,0.2572940369414971,0.22331959815505162,0.1562179099675115,0.296441177869433,0.17732850849694803
0.06272487603469556,0.13102915511539437,0.25230200646505135,0.1435596689632392,0.138840096408986,0.17008849008786825,0.008993503049291796,0.013975082416308612,0.08732683740211651,0.04964690512422972,0.07300677516264406,0.2541546997184799,0.2180994526612047,0.1527011164212856,0.2959204384694007,0.17479237217373897
0.06230442570616714,0.12611739351064893,0.24745935169803382,0.14357285032781136,0.1376452642083147,0.17270245387185226,0.009018660672089077,0.013744504332090372,0.08839867797138379,0.04892281979278122,0.0707281012432088,0.25106554327003056,0.21293342859291353,0.1492479336385281,0.2953535070997054,0.17229116851300236
0.06192743417449672,0.12130614464530955,0.24264433908369037,0.1436985548896928,0.13645351954401622,0.1753269744121175,0.009053746210125242,0.013522389073166174,0.08946666909377143,0.04821803107738738,0.06854885760685003,0.24802737090410493,0.20782430053691614,0.14586089952988948,0.29474455602467947,0.16982424106595906
0.061596530270592406,0.11659644745897761,0.2378592302200366,0.14393530650479774,0.13526697582507335,0.177960148969221,0.00909859831771004,0.013308865671465454,0.09053004699489615,0.04753278792531587,0.0664675245902543,0.24504082868096663,0.20277471659419957,0.14254251721864056,0.2940980476367132,0.1673912351245783
0.06131424287995886,0.11198913320539572,0.2331060953239294,0.1442815355735492,0.13408784476298766,0.18060018923335608,0.009153050874424635,0.013104067634232998,0.0915880170865305,0.04686733783855065,0.06448251115592091,0.242106311716588,0.1977871287814979,0.13929525575782084,0.2934186163327078,0.16499202526931409
0.0610829915356277,0.10748482401942835,0.22838669258385386,0.14473561744792618,0.13291845986875025,0.18324541486404414,0.009216936629812034,0.012908134760091132,0.09263971676023162,0.046221912676450136,0.06259214537058856,0.2392238740231386,0.192863722364495,0.13612154109532076,0.29271094187117214,0.16262661799564582
0.0609050895441329,0.10308393155241397,0.22370241930656518,0.1452958965316141,0.13176128344912777,0.18589423021566748,0.009290089450425781,0.01272121317092348,0.09368417447426056,0.045596713686149586,0.06079466232023023,0.23639317550518124,0.18800636740253338,0.13302373923664204,0.2919796198802754,0.160295034741067
0.060782755128330306,0.09878666204985499,0.21905436799844072,0.14596069464211517,0.13061889801902546,0.188545083521461,0.009372344917686432,0.012543453493072962,0.09472027916648534,0.044991896275569786,0.05908819245220909,0.2336134987656559,0.183216621105014,0.13000413356375515,0.2912290342323945,0.15799719066873913
0.06071812285286562,0.09459303238723976,0.21444344395221843,0.14672830323110486,0.12949398365496226,0.19119640846812186,0.009463539165478397,0.01237500726461589,0.09574677881088926,0.044407554965470185,0.05747075703592078,0.23088382620096468,0.1784957814953553,0.12706489819915526,0.2904632349306421,0.1557328111492984
0.06071325173032473,0.09050289350148913,0.20987048398180252,0.14759696008547699,0.12838928330198138,0.19384654881452404,0.009563505993979954,0.012216021795853039,0.09676231120713398,0.0438437106968146,0.055940275268167354,0.2282029389610715,0.1738449620348167,0.12420806918947405,0.28968583236178574,0.1535014329916464
0.06077012949827293,0.08651595510450512,0.20533635455380558,0.14856481208184227,0.12730755839769967,0.19649366746540053,0.009672072436559825,0.012066633919960337,0.09776545122427192,0.0433003060239897,0.054494579038753585,0.22556951216924287,0.1692651605886716,0.12143551514823867,0.2888999367319836,0.15130248689888523
0.060890673149845295,0.0826318089744688,0.20084202697846187,0.14962986638452425,0.12625153739124445,0.1991356568826578,0.009789053851835264,0.011926964161919372,0.09875475945395451,0.04277721146023312,0.053131428434077296,0.22298219919152884,0.16475731408187372,0.1187489097087272,0.28810816589369215,0.14913540992165303
0.06107672597139471,0.07884994998196557,0.19638862819432631,0.1507899355717778,0.12522385982088693,0.2017700983250049,0.00991425133985074,0.011797114402491904,0.09972882671054713,0.04227423883778068,0.05184852501186937,0.22043970259169954,0.16032233711298507,0.11614971180270317,0.2873127050566934,0.1469997461861977
0.06133005147773368,0.0751697941393563,0.19197746659115303,0.15204259263584177,0.12422701973682937,0.20439430406054215,0.010047453668029793,0.01167717055678321,0.10068631237896365,0.04179115598755574,0.050643522677982625,0.21794082960774094,0.15596114355545138,0.11363916227019095,0.28651538174524277,0.14489522249169828
0.06165232473672173,0.0715906931527697,0.18761003329535683,0.15338515901584918,0.12326331974767572,0.20700541668752767,0.010188442472860616,0.01156720782665007,0.10162597475104289,0.04132770089589362,0.0495140364964245,0.21548453027818665,0.15167465099813895,0.11121829739166421,0.28571773656379423,0.14282179582925034
0.06204512164050141,0.06811194518306854,0.18328798037580352,0.15481473111558244,0.12233485536480718,0.2096005206414238,0.010336998033720743,0.011467295280936447,0.10254669169621285,0.04088359532031207,0.04845764990409935,0.21306991674524817,0.14746376872091013,0.10888796874011814,0.2849210874600009,0.14077967154497187
0.06250990816310836,0.06473280176042598,0.17901307844721065,0.1563282244827517,0.12144353630710354,0.21217674685399485,0.010492904200634654,0.011377498498005413,0.10344747027701158,0.04045855777161118,0.0474719208416612,0.21069626277215855,0.14332937071832355,0.10664885924562091,0.2841265888096719,0.13876929260056564
0.06304803463379184,0.06145247102333661,0.1747871570554967,0.1579224137244119,0.1205911262687124,0.21473136543480018,0.01065595203694625,0.011297880069240993,0.10432744424050175,0.04005231568353442,0.04655438724981229,0.2083629831292254,0.13927225602549073,0.10450149241150977,0.28333528642942973,0.13679130206899934
0.06366073864563902,0.05827011764711138,0.17061203192350247,0.1595939599805252,0.11977928023490733,0.21726186148634247,0.01082594191341731,0.011228497945871975,0.10518585868877942,0.03966461650150626,0.04570257222911237,0.20606959321090382,0.13529309921781496,0.10244623469200237,0.2825481692410881,0.13484648253541973
0.06434915390792062,0.055184859974741034,0.16648942354261698,0.16133942389935058,0.11900957233066063,0.21976598957388707,0.011002683880596047,0.011169401795397292,0.1060220416512215,0.03929523733536274,0.044913988946446604,0.20381565001815752,0.1313923986859508,0.10048329144562544,0.2817662177952663,0.13293567735764386
0.06511432008073022,0.05219576495673671,0.16242087450816062,0.16315526282016304,0.11828351358895517,0.22224180304582378,0.011185996242763844,0.011120628290397871,0.10683536274209787,0.03894399274525175,0.044186145127027156,0.2016006764395865,0.1275704427321219,0.09861269751215475,0.28099044924441285,0.13105969969573222
0.06595719133279324,0.04930184154551663,0.15840768597553154,0.1650378116811217,0.11760255947903767,0.22468765532837856,0.011375702355405677,0.011082197922396012,0.10762517958179439,0.03861074017466718,0.04351654673457215,0.199424071544763,0.12382731560110934,0.09683430685992821,0.280221957680969,0.12921924290409598
0.06687864313379077,0.046502033179919855,0.1544509041127338,0.16698324799210487,0.11696810751011805,0.22710217146786488,0.011571625764578009,0.011054116071098376,0.10839077446097865,0.03829538252104537,0.04290270024862767,0.19728501562093775,0.12016294140059885,0.09514779088198085,0.2794619480821537,0.12741482336975674
0.06787947699181453,0.04379520994945947,0.15055136380536985,0.16898754201212607,0.11638148570792808,0.22948418951303656,0.011773583895845983,0.011036378097438885,0.10913129621971356,0.03799786735315182,0.042342112823576944,0.1951823987196377,0.1165771414828344,0.0935526510506904,0.2787117615001946,0.1256467834306621
0.06896042290630865,0.04118016239156917,0.14670975973203682,0.1710464034913377,0.11584393322687143,0.2318326727500764,0.011981381377413353,0.011028975804638977,0.10984574052292342,0.037718182353329854,0.041832289574834425,0.19311481334763525,0.11306968561280126,0.0920482399845152,0.2779728886877263,0.12391534250875735
0.07012213936364754,0.03865560147203354,0.14292671403283747,0.17315525666197357,0.11535657477984321,0.23414659524026168,0.012194806008879169,0.011031903186366142,0.1105329877523958,0.03745634668479874,0.04137072728926958,0.19108061882655694,0.10964033071080696,0.09063378175276778,0.2772469691369374,0.12222065797609993
0.07136521075774473,0.03622016720712436,0.13920283099099165,0.17530926761840215,0.11492039090953138,0.2364248044752497,0.01241363011106553,0.011045160691374442,0.11119187782512119,0.03721239815802113,0.040954903995070395,0.18907804026679284,0.10628884592428105,0.08930838725756154,0.27653577261052087,0.12056287011499818
0.07269014217396767,0.033872442129460514,0.1355387383198965,0.17750340933325298,0.11453618716047222,0.23866588363869187,0.012637616345782402,0.011068757707666063,0.11182129159529781,0.036986376289549504,0.04058226404071685,0.1871052655105339,0.10301502360576342,0.0880710633403235,0.27584116069593845,0.11894212473496064
0.07409735153347487,0.03161096456160202,0.13193511517581522,0.179732535223295,0.11420456924654686,0.24086807560520088,0.012866524932996105,0.011102713103724121,0.11242022627121,0.036778301601039655,0.04025020132189284,0.1851605272772527,0.09981867660425855,0.08692071470608875,0.27516502672203247,0.11735857342399594
0.07558715915868991,0.029434239995096475,0.12839270743676368,0.18199144741382306,0.11392593424111584,0.2430293203758662,0.013100120334789763,0.011147053798403908,0.11298786102428214,0.036588154562054304,0.03995605027181448,0.1832421676189086,0.09669962305981858,0.08585613827291255,0.27450921348982776,0.11581235298750851
0.07715977488964794,0.027340750509792493,0.12491233111294021,0.18427495482146414,0.11370047926167806,0.24514738020772658,0.013338176788130679,0.011201811452814417,0.11352360908249941,0.03641586414017634,0.039697094522003346,0.18134868264098042,0.09365766057115173,0.08487601008977871,0.27387540959426154,0.11430354703665897
0.07881528314666175,0.02532896222087448,0.12149486500087806,0.18657791654429068,0.11352821626376308,0.24721998875195983,0.013580482387234777,0.011267017478641318,0.11402715293510143,0.03626131461706031,0.03947059180624421,0.17947874635172786,0.09069253213359256,0.08397886860365712,0.2732650277990711,0.11283213431458353
0.0805536286808255,0.023397330793173493,0.11814123387990458,0.18889526641072524,0.11340898145372783,0.2492449889484499,0.013826841485023106,0.011342696634214494,0.11449845984871806,0.03612436683464455,0.03927380596001299,0.17763121339911223,0.08780388687824167,0.08316310597713945,0.2726790914510459,0.11139793817374935
0.08237460947789886,0.0215443051152492,0.11485238368958169,0.19122201518331028,0.11334243552958269,0.25122044974738234,0.014077075263544668,0.011428860515026004,0.11493777570938125,0.03600488329473162,0.03910403965449874,0.17580510128401283,0.08499124483405227,0.08242697888700952,0.27211819194517883,0.1100006067716736
0.08427788083613447,0.019768329278674862,0.11162925023035489,0.19355322783775558,0.11332805458946853,0.2531447565560833,0.014331020410978041,0.011525504326728426,0.11534559624063721,0.03590275075542148,0.038958665303755136,0.1739995533581738,0.08225398485404926,0.08176863666926197,0.2715825562731309,0.10863964039896495
0.08626296682376669,0.018067843057975347,0.10847272300221535,0.19588397451383968,0.11336511577438203,0.25501667136370204,0.014588525932739668,0.011632609474766837,0.1157226158596134,0.03581789821791252,0.03883515237843649,0.17221378450618058,0.079591365784855,0.08118615591327395,0.27107218499775326,0.10731444552524277
0.08832927329822483,0.01644128112964489,0.10538360583931591,0.19820925511090526,0.11345269037946287,0.256835359664549,0.014849448210874106,0.01175015027743026,0.11606965574723817,0.03575030919226803,0.03873108939527103,0.17044701187497333,0.07700256634039511,0.08067757411141503,0.2705870005586404,0.1060243865758469
0.09047610014632711,0.014887071300425428,0.1023625761609278,0.20052390162418385,0.11358965614779833,0.2586003825321649,0.015113644504178216,0.011878101479011215,0.11638757402819211,0.03570002749308643,0.03864419900037943,0.16869837337087248,0.07448672419683887,0.08024091946443454,0.27012698172617183,0.10476882408529972
0.09270265213568793,0.013403632032455703,0.09941015010780463,0.20282248521033455,0.11377472567891697,0.2603116534534319,0.015380965147029363,0.012016444941345574,0.11667716966462538,0.03566715626214941,0.03857234482072684,0.1669668405639253,0.07204296741962823,0.07987423500628371,0.2696922785176794,0.10354713729248953
0.09500804776060025,0.011989369554853769,0.09652667037308553,0.2050992866728033,0.11400647954380906,0.2619693607907451,0.015651245169557564,0.012165175034518225,0.11693911448507775,0.03565185039906298,0.03851352911021126,0.16525114947499037,0.06967043771068032,0.0795755954453032,0.26928330277449253,0.10235873039625452
0.09739132547618842,0.010642674838664755,0.09371232575449479,0.20734836465602077,0.11428339657030996,0.2635738579848094,0.015924297674737634,0.012324302382177207,0.11717395346620689,0.03565430305267027,0.03846588065020561,0.16354978734274522,0.06736830543491325,0.07934311544222225,0.26890079073123924,0.10120302278483598
0.09985144674303868,0.009361921215006633,0.09096718877056123,0.20956368706856277,0.1146038775632574,0.26512552482847657,0.016199912359924046,0.012493855689691422,0.11738217273558355,0.035674727240432996,0.03842763285997695,0.16186104754051703,0.0651357767724217,0.07917494844864498,0.2685458352066697,0.10007942451417973
0.10238729535110039,0.00814546440073327,0.0882912531295912,0.21173927374576787,0.114966259489934,0.26662460431670937,0.016477859973892034,0.012673881486741957,0.11756429491864102,0.03571333398503823,0.03839709260632058,0.1601831209863649,0.06297209363269277,0.07906927569693176,0.2682198864207706,0.09898729908703457
0.10499767255680861,0.006991645944317091,0.08568446469144088,0.21386932752753696,0.11536881769230191,0.2680710421483581,0.016757899825017363,0.012864441744538997,0.1177209679362782,0.03577030874632775,0.038372600743917205,0.1585141888200187,0.06087652715973973,0.07902428544209018,0.2679247218107062,0.09792591719748046
0.10768128765179395,0.00589879865367133,0.08314674546878947,0.21594834559105366,0.11580975445905978,0.26946440305472336,0.017039787406686113,0.013065609470913429,0.11785303588287446,0.03584579070508802,0.038352490803890735,0.15685250342983476,0.05884836576169674,0.07903814308197445,0.2676623865020882,0.0968944143647559
0.11043674368619891,0.004865251912504825,0.08067801054314329,0.21797120343519402,0.1162871732479066,0.2708039224031423,0.01732328113799302,0.013277462529771699,0.11796158905263139,0.035939863358981375,0.038335064380787445,0.15519645461343154,0.05688689863232057,0.0791089532943054,0.2674351072304973,0.09589177783701612
0.11326251819530433,0.003889336063102374,0.07827817809138156,0.21993320495899796,0.11679904063689042,0.2720886577181283,0.0176081480125341,0.013500076059666317,0.11804799152012727,0.03605255994926151,0.038318600772780986,0.15354461807396666,0.05499139571650382,0.07923472133878445,0.26724518345676807,0.09491687595874007
0.11615693892490028,0.002969385820383911,0.07594717300897849,0.22183009356607764,0.11734314964648898,0.27331766385863426,0.01789416798056174,0.013733514150027907,0.11811388602169784,0.03618387600028867,0.038301395834359354,0.1518957840322255,0.05316108503046795,0.07941333301012661,0.2670948601523617,0.0939685128856457
0.11911815568102949,0.002103742794920712,0.07368492485716199,0.22365802108218596,0.1179171117857125,0.2744901521660464,0.018181136916784715,0.013977822652781883,0.1181611771263956,0.03633377962113574,0.03828181046260535,0.15024896446356464,0.051395129929057315,0.079642568817038,0.2669861872387668,0.09304548532497746
